13245
8.896693e+02
8.945045e+02
9.063726e+02
8.997792e+02
8.901089e+02
8.905485e+02
8.971418e+02
9.072517e+02
8.984605e+02
8.940649e+02
8.857133e+02
8.751638e+02
8.725265e+02
8.738452e+02
8.857133e+02
8.848342e+02
8.953836e+02
8.571418e+02
8.628561e+02
8.624166e+02
8.738452e+02
8.826364e+02
8.940649e+02
9.138451e+02
9.279110e+02
9.208781e+02
9.367022e+02
9.261528e+02
8.980209e+02
9.103286e+02
9.134055e+02
9.037352e+02
8.909880e+02
8.654935e+02
8.852737e+02
9.098890e+02
9.147242e+02
8.949440e+02
8.870320e+02
8.975814e+02
9.076913e+02
9.252737e+02
9.323066e+02
9.279110e+02
9.718670e+02
9.116473e+02
8.817572e+02
8.593397e+02
8.549441e+02
8.778012e+02
8.879111e+02
8.901089e+02
8.909880e+02
8.782407e+02
8.549441e+02
8.562628e+02
8.786803e+02
8.927462e+02
8.993396e+02
8.813177e+02
8.729661e+02
8.720869e+02
8.690100e+02
8.716473e+02
8.760430e+02
8.857133e+02
8.874715e+02
8.870320e+02
8.813177e+02
8.817572e+02
8.795594e+02
8.808781e+02
8.804385e+02
8.896693e+02
8.909880e+02
8.945045e+02
8.940649e+02
8.892297e+02
8.848342e+02
8.865924e+02
8.896693e+02
8.936254e+02
8.958231e+02
8.931858e+02
8.918671e+02
8.945045e+02
8.865924e+02
9.068121e+02
9.019770e+02
8.874715e+02
8.861528e+02
8.949440e+02
8.953836e+02
9.002188e+02
8.901089e+02
8.835155e+02
8.817572e+02
8.896693e+02
8.984605e+02
8.865924e+02
8.865924e+02
8.725265e+02
8.830759e+02
8.751638e+02
8.690100e+02
8.804385e+02
8.909880e+02
8.848342e+02
8.742847e+02
9.024166e+02
8.931858e+02
8.725265e+02
8.778012e+02
8.905485e+02
8.931858e+02
9.050539e+02
9.041748e+02
9.032957e+02
9.019770e+02
8.914276e+02
8.861528e+02
8.879111e+02
8.918671e+02
9.015374e+02
8.813177e+02
9.103286e+02
8.918671e+02
8.918671e+02
8.839550e+02
8.826364e+02
8.870320e+02
8.905485e+02
8.958231e+02
8.953836e+02
8.953836e+02
8.892297e+02
8.826364e+02
8.795594e+02
8.795594e+02
8.861528e+02
8.936254e+02
8.883506e+02
9.002188e+02
8.874715e+02
8.852737e+02
8.804385e+02
8.826364e+02
8.808781e+02
8.879111e+02
8.936254e+02
9.041748e+02
9.015374e+02
8.830759e+02
8.821968e+02
8.791199e+02
8.791199e+02
8.593397e+02
8.593397e+02
8.756034e+02
8.817572e+02
8.756034e+02
8.637353e+02
8.681309e+02
8.830759e+02
8.989001e+02
9.103286e+02
9.134055e+02
9.024166e+02
8.791199e+02
8.672518e+02
8.782407e+02
8.870320e+02
8.896693e+02
8.901089e+02
8.672518e+02
8.676913e+02
9.081309e+02
9.191198e+02
8.707682e+02
8.940649e+02
9.081309e+02
8.879111e+02
8.874715e+02
8.953836e+02
9.116473e+02
8.953836e+02
8.835155e+02
8.751638e+02
8.808781e+02
8.923066e+02
9.063726e+02
9.076913e+02
9.098890e+02
9.090099e+02
8.949440e+02
8.786803e+02
8.571418e+02
8.668122e+02
8.799990e+02
8.918671e+02
8.870320e+02
8.997792e+02
8.826364e+02
8.870320e+02
8.905485e+02
9.103286e+02
8.931858e+02
8.734056e+02
8.294496e+02
8.043947e+02
8.013177e+02
8.171419e+02
8.567023e+02
8.830759e+02
9.068121e+02
9.230759e+02
9.191198e+02
9.301088e+02
9.129660e+02
8.918671e+02
8.672518e+02
8.672518e+02
8.905485e+02
9.098890e+02
9.199990e+02
9.384604e+02
9.173616e+02
9.292297e+02
9.120869e+02
9.248341e+02
9.138451e+02
9.204385e+02
9.257133e+02
9.120869e+02
9.353835e+02
9.112078e+02
9.098890e+02
8.901089e+02
8.835155e+02
8.778012e+02
8.909880e+02
8.971418e+02
8.857133e+02
8.936254e+02
8.681309e+02
9.116473e+02
8.584606e+02
8.821968e+02
9.432957e+02
8.026365e+02
9.538451e+02
8.325265e+02
8.628561e+02
8.962627e+02
8.738452e+02
8.518672e+02
9.476912e+02
8.307683e+02
8.580210e+02
9.024166e+02
8.589001e+02
8.527463e+02
8.967023e+02
8.417573e+02
9.063726e+02
8.808781e+02
9.019770e+02
8.351639e+02
8.716473e+02
8.773616e+02
8.712078e+02
9.446143e+02
8.017573e+02
9.085704e+02
9.621967e+02
8.615375e+02
8.399990e+02
9.257133e+02
8.026365e+02
8.615375e+02
8.443947e+02
8.505485e+02
9.410978e+02
9.085704e+02
9.375814e+02
8.114276e+02
9.173616e+02
9.380209e+02
9.331857e+02
9.916472e+02
8.808781e+02
1.010988e+03
8.575814e+02
7.243948e+02
7.991200e+02
8.048342e+02
7.819771e+02
8.747242e+02
8.729661e+02
9.221968e+02
7.503288e+02
1.054504e+03
8.760430e+02
8.870320e+02
9.063726e+02
9.239550e+02
9.199990e+02
8.531859e+02
8.149441e+02
9.151638e+02
8.092299e+02
8.312078e+02
9.085704e+02
8.615375e+02
8.945045e+02
9.841747e+02
8.571418e+02
9.947241e+02
7.903287e+02
9.740648e+02
8.465924e+02
8.342848e+02
8.461529e+02
8.109881e+02
9.978010e+02
8.879111e+02
8.263727e+02
9.147242e+02
9.186803e+02
8.228562e+02
8.536254e+02
9.705483e+02
9.287902e+02
9.494495e+02
9.578011e+02
8.984605e+02
7.929661e+02
9.758231e+02
8.527463e+02
8.813177e+02
8.997792e+02
8.975814e+02
9.498890e+02
8.931858e+02
8.975814e+02
8.861528e+02
8.931858e+02
8.909880e+02
8.962627e+02
8.967023e+02
8.971418e+02
8.936254e+02
8.879111e+02
8.839550e+02
8.791199e+02
8.821968e+02
8.654935e+02
8.435155e+02
8.584606e+02
8.435155e+02
8.580210e+02
8.760430e+02
8.945045e+02
9.063726e+02
9.134055e+02
9.160429e+02
9.129660e+02
9.142847e+02
9.076913e+02
8.997792e+02
8.949440e+02
8.945045e+02
9.019770e+02
9.054935e+02
9.041748e+02
9.010979e+02
9.002188e+02
8.984605e+02
8.958231e+02
8.914276e+02
8.918671e+02
8.923066e+02
8.945045e+02
8.927462e+02
8.923066e+02
8.914276e+02
8.883506e+02
8.905485e+02
8.940649e+02
8.975814e+02
9.063726e+02
9.076913e+02
9.094495e+02
9.046144e+02
8.958231e+02
8.909880e+02
8.874715e+02
8.887902e+02
8.892297e+02
8.918671e+02
8.883506e+02
8.861528e+02
8.813177e+02
8.826364e+02
8.760430e+02
8.804385e+02
8.852737e+02
8.901089e+02
8.896693e+02
8.826364e+02
9.015374e+02
9.010979e+02
8.773616e+02
8.870320e+02
8.887902e+02
8.927462e+02
8.953836e+02
9.015374e+02
8.861528e+02
8.852737e+02
8.887902e+02
8.901089e+02
8.883506e+02
8.918671e+02
8.940649e+02
8.953836e+02
8.909880e+02
8.839550e+02
8.791199e+02
8.804385e+02
8.835155e+02
8.865924e+02
8.923066e+02
8.923066e+02
8.927462e+02
8.879111e+02
8.843946e+02
8.857133e+02
8.887902e+02
8.936254e+02
8.967023e+02
9.019770e+02
9.046144e+02
9.024166e+02
8.901089e+02
8.967023e+02
9.257133e+02
9.393396e+02
9.472516e+02
9.692297e+02
9.890099e+02
1.033845e+03
1.169669e+03
9.169220e+02
7.292299e+02
6.980212e+02
7.534058e+02
8.114276e+02
8.461529e+02
8.681309e+02
8.830759e+02
8.940649e+02
8.936254e+02
8.883506e+02
8.918671e+02
8.945045e+02
8.901089e+02
8.843946e+02
8.778012e+02
8.738452e+02
8.751638e+02
8.782407e+02
8.843946e+02
8.909880e+02
8.962627e+02
8.967023e+02
8.936254e+02
8.914276e+02
8.896693e+02
8.901089e+02
8.927462e+02
8.931858e+02
8.945045e+02
8.958231e+02
8.808781e+02
8.676913e+02
8.729661e+02
8.791199e+02
8.826364e+02
8.883506e+02
8.962627e+02
8.958231e+02
8.945045e+02
8.901089e+02
8.848342e+02
8.839550e+02
8.848342e+02
8.857133e+02
8.883506e+02
8.936254e+02
8.949440e+02
8.892297e+02
8.861528e+02
8.773616e+02
8.848342e+02
8.839550e+02
8.879111e+02
8.936254e+02
8.945045e+02
8.883506e+02
8.799990e+02
8.817572e+02
8.857133e+02
8.839550e+02
8.940649e+02
8.971418e+02
9.037352e+02
8.984605e+02
8.949440e+02
8.896693e+02
8.874715e+02
8.857133e+02
8.909880e+02
8.901089e+02
8.923066e+02
8.918671e+02
8.887902e+02
8.843946e+02
8.817572e+02
8.804385e+02
8.813177e+02
8.808781e+02
9.054935e+02
8.927462e+02
8.953836e+02
8.892297e+02
8.804385e+02
8.861528e+02
8.751638e+02
8.989001e+02
8.835155e+02
8.918671e+02
8.962627e+02
8.905485e+02
8.839550e+02
8.839550e+02
8.857133e+02
8.883506e+02
8.901089e+02
8.923066e+02
8.918671e+02
8.918671e+02
8.874715e+02
8.830759e+02
8.808781e+02
8.870320e+02
8.791199e+02
8.971418e+02
8.927462e+02
8.865924e+02
8.958231e+02
8.830759e+02
8.874715e+02
8.874715e+02
8.914276e+02
8.949440e+02
8.953836e+02
8.936254e+02
8.914276e+02
8.821968e+02
8.830759e+02
8.843946e+02
8.892297e+02
8.936254e+02
8.967023e+02
8.997792e+02
8.949440e+02
8.909880e+02
8.870320e+02
8.848342e+02
8.870320e+02
8.905485e+02
8.949440e+02
8.962627e+02
8.953836e+02
8.901089e+02
8.865924e+02
8.839550e+02
8.835155e+02
8.879111e+02
8.931858e+02
8.940649e+02
8.949440e+02
8.909880e+02
8.865924e+02
8.852737e+02
8.865924e+02
8.905485e+02
8.931858e+02
8.975814e+02
8.975814e+02
8.958231e+02
8.914276e+02
8.887902e+02
8.870320e+02
8.892297e+02
8.936254e+02
8.967023e+02
9.024166e+02
9.002188e+02
8.958231e+02
8.905485e+02
8.892297e+02
8.843946e+02
8.927462e+02
8.962627e+02
8.936254e+02
8.940649e+02
8.896693e+02
8.830759e+02
8.791199e+02
8.813177e+02
8.857133e+02
8.883506e+02
8.918671e+02
8.975814e+02
8.892297e+02
8.848342e+02
8.799990e+02
8.804385e+02
8.835155e+02
8.887902e+02
8.918671e+02
8.962627e+02
8.967023e+02
8.892297e+02
8.909880e+02
8.909880e+02
8.883506e+02
8.813177e+02
8.945045e+02
8.914276e+02
8.852737e+02
8.813177e+02
8.773616e+02
8.808781e+02
8.857133e+02
8.848342e+02
8.874715e+02
8.945045e+02
8.993396e+02
9.015374e+02
9.050539e+02
8.927462e+02
8.861528e+02
8.887902e+02
8.874715e+02
8.865924e+02
8.975814e+02
8.940649e+02
8.870320e+02
8.795594e+02
8.799990e+02
8.896693e+02
8.896693e+02
8.949440e+02
8.945045e+02
8.962627e+02
8.975814e+02
8.874715e+02
8.861528e+02
8.861528e+02
8.874715e+02
8.892297e+02
8.936254e+02
8.949440e+02
8.953836e+02
8.887902e+02
8.861528e+02
8.852737e+02
8.918671e+02
8.949440e+02
9.019770e+02
8.997792e+02
8.874715e+02
8.830759e+02
8.879111e+02
8.826364e+02
8.804385e+02
8.870320e+02
8.826364e+02
8.646144e+02
8.703287e+02
8.773616e+02
8.756034e+02
8.778012e+02
8.804385e+02
8.703287e+02
8.958231e+02
9.164825e+02
9.129660e+02
9.098890e+02
8.843946e+02
8.399990e+02
8.786803e+02
8.865924e+02
8.883506e+02
8.804385e+02
8.826364e+02
8.751638e+02
8.958231e+02
8.786803e+02
8.769221e+02
8.817572e+02
8.817572e+02
8.901089e+02
8.887902e+02
8.883506e+02
8.949440e+02
8.861528e+02
8.865924e+02
9.186803e+02
8.747242e+02
9.248341e+02
8.826364e+02
9.578011e+02
8.734056e+02
9.138451e+02
8.997792e+02
9.010979e+02
9.085704e+02
9.129660e+02
9.301088e+02
9.626362e+02
9.261528e+02
8.821968e+02
8.470320e+02
7.920870e+02
8.404386e+02
8.531859e+02
8.703287e+02
9.002188e+02
8.975814e+02
8.989001e+02
9.147242e+02
8.646144e+02
8.887902e+02
8.760430e+02
8.795594e+02
8.681309e+02
8.813177e+02
8.676913e+02
8.738452e+02
8.505485e+02
8.971418e+02
8.386804e+02
9.098890e+02
8.905485e+02
9.397792e+02
9.116473e+02
9.419769e+02
9.358231e+02
9.714275e+02
9.186803e+02
8.360430e+02
8.373617e+02
8.290100e+02
8.158232e+02
8.391199e+02
8.527463e+02
8.826364e+02
8.918671e+02
9.120869e+02
1.003955e+03
8.945045e+02
9.265923e+02
8.887902e+02
8.874715e+02
8.668122e+02
9.674714e+02
9.169220e+02
8.909880e+02
8.808781e+02
9.063726e+02
8.870320e+02
8.734056e+02
8.461529e+02
8.413177e+02
8.756034e+02
8.219771e+02
8.795594e+02
8.760430e+02
8.958231e+02
8.826364e+02
9.081309e+02
8.879111e+02
8.839550e+02
8.729661e+02
8.936254e+02
8.967023e+02
8.870320e+02
8.760430e+02
9.032957e+02
8.527463e+02
8.646144e+02
8.874715e+02
9.226363e+02
9.476912e+02
9.314275e+02
8.879111e+02
8.861528e+02
8.936254e+02
9.072517e+02
9.402187e+02
9.476912e+02
9.349440e+02
9.494495e+02
9.107682e+02
9.107682e+02
9.068121e+02
8.575814e+02
8.290100e+02
8.171419e+02
8.193397e+02
8.452737e+02
8.461529e+02
8.799990e+02
9.072517e+02
8.698891e+02
8.883506e+02
8.940649e+02
8.984605e+02
8.760430e+02
8.923066e+02
8.285705e+02
8.830759e+02
8.857133e+02
8.905485e+02
9.015374e+02
8.905485e+02
8.861528e+02
9.094495e+02
9.173616e+02
8.474716e+02
9.648340e+02
8.593397e+02
9.010979e+02
9.160429e+02
8.839550e+02
8.936254e+02
8.382408e+02
9.248341e+02
8.914276e+02
8.918671e+02
8.901089e+02
8.821968e+02
8.909880e+02
9.059330e+02
9.054935e+02
8.953836e+02
8.751638e+02
8.980209e+02
8.808781e+02
8.712078e+02
9.138451e+02
8.729661e+02
8.909880e+02
8.580210e+02
8.817572e+02
8.958231e+02
8.742847e+02
8.760430e+02
8.949440e+02
9.037352e+02
8.989001e+02
8.751638e+02
8.830759e+02
8.909880e+02
8.672518e+02
9.305484e+02
8.738452e+02
8.808781e+02
8.848342e+02
8.953836e+02
8.703287e+02
8.989001e+02
9.041748e+02
8.676913e+02
8.967023e+02
8.650540e+02
8.975814e+02
9.243945e+02
9.463726e+02
8.606583e+02
8.712078e+02
8.936254e+02
9.002188e+02
8.799990e+02
8.931858e+02
8.738452e+02
9.002188e+02
9.068121e+02
8.852737e+02
8.861528e+02
9.010979e+02
8.940649e+02
9.138451e+02
8.742847e+02
9.107682e+02
8.949440e+02
8.909880e+02
9.090099e+02
8.413177e+02
8.395594e+02
9.362627e+02
8.967023e+02
8.909880e+02
9.076913e+02
8.945045e+02
9.046144e+02
8.580210e+02
8.980209e+02
8.830759e+02
9.085704e+02
8.764825e+02
8.865924e+02
9.015374e+02
8.756034e+02
8.729661e+02
9.213176e+02
8.659331e+02
8.813177e+02
8.769221e+02
9.283506e+02
8.685704e+02
9.147242e+02
8.487902e+02
9.283506e+02
8.197793e+02
9.661527e+02
8.391199e+02
8.817572e+02
9.481308e+02
8.382408e+02
9.279110e+02
8.958231e+02
8.901089e+02
8.896693e+02
9.389000e+02
8.953836e+02
9.213176e+02
8.923066e+02
9.226363e+02
8.681309e+02
8.707682e+02
9.529659e+02
7.828563e+02
8.914276e+02
9.349440e+02
8.707682e+02
9.002188e+02
8.857133e+02
8.048342e+02
1.054944e+03
8.338452e+02
9.015374e+02
8.751638e+02
9.002188e+02
9.142847e+02
9.208781e+02
8.589001e+02
8.531859e+02
8.848342e+02
8.580210e+02
8.637353e+02
8.549441e+02
9.621967e+02
8.597792e+02
8.672518e+02
8.760430e+02
9.059330e+02
9.120869e+02
8.712078e+02
9.054935e+02
8.817572e+02
8.668122e+02
9.274714e+02
8.070320e+02
9.081309e+02
8.953836e+02
8.509880e+02
8.835155e+02
8.879111e+02
8.764825e+02
8.756034e+02
8.883506e+02
8.562628e+02
9.032957e+02
8.923066e+02
9.028561e+02
8.769221e+02
8.909880e+02
9.081309e+02
8.786803e+02
9.125264e+02
8.624166e+02
8.883506e+02
8.975814e+02
9.103286e+02
8.826364e+02
8.632957e+02
8.795594e+02
8.821968e+02
8.206584e+02
9.472516e+02
8.720869e+02
9.072517e+02
8.967023e+02
8.975814e+02
9.296693e+02
8.615375e+02
8.874715e+02
9.248341e+02
9.063726e+02
8.892297e+02
8.663726e+02
8.681309e+02
9.384604e+02
8.857133e+02
9.156033e+02
8.835155e+02
8.927462e+02
8.980209e+02
8.839550e+02
9.850538e+02
8.632957e+02
8.540649e+02
8.918671e+02
8.892297e+02
8.870320e+02
7.709882e+02
9.252737e+02
9.032957e+02
8.764825e+02
8.782407e+02
9.120869e+02
9.054935e+02
9.046144e+02
8.676913e+02
9.195594e+02
8.742847e+02
9.112078e+02
8.813177e+02
8.896693e+02
8.887902e+02
8.734056e+02
8.936254e+02
9.371418e+02
8.650540e+02
9.028561e+02
8.857133e+02
9.226363e+02
9.318671e+02
9.525264e+02
8.501089e+02
8.562628e+02
8.373617e+02
9.217572e+02
8.395594e+02
9.015374e+02
8.584606e+02
9.138451e+02
8.923066e+02
8.962627e+02
9.054935e+02
8.813177e+02
8.448342e+02
1.008350e+03
1.116482e+03
7.753837e+02
9.582407e+02
8.426364e+02
8.804385e+02
8.962627e+02
9.059330e+02
9.094495e+02
9.138451e+02
9.182407e+02
7.068124e+02
9.287902e+02
9.538451e+02
9.120869e+02
8.989001e+02
8.896693e+02
9.485703e+02
9.340649e+02
8.729661e+02
8.641748e+02
8.514276e+02
9.336253e+02
9.648340e+02
8.558232e+02
8.852737e+02
8.382408e+02
9.028561e+02
9.257133e+02
8.804385e+02
9.397792e+02
8.531859e+02
8.685704e+02
8.953836e+02
9.125264e+02
8.575814e+02
8.092299e+02
9.147242e+02
9.279110e+02
8.975814e+02
8.659331e+02
9.349440e+02
8.602188e+02
8.879111e+02
9.226363e+02
9.063726e+02
9.459330e+02
9.406583e+02
9.107682e+02
8.254935e+02
8.061530e+02
9.142847e+02
9.169220e+02
9.019770e+02
9.230759e+02
8.439551e+02
9.432957e+02
9.081309e+02
8.509880e+02
8.821968e+02
8.738452e+02
1.039559e+03
8.971418e+02
9.964824e+02
8.857133e+02
7.740651e+02
8.430759e+02
1.004834e+03
8.351639e+02
8.861528e+02
8.070320e+02
9.125264e+02
9.525264e+02
7.410980e+02
1.038241e+03
9.230759e+02
8.241749e+02
9.441747e+02
9.538451e+02
8.545045e+02
8.905485e+02
8.826364e+02
8.764825e+02
8.562628e+02
7.934057e+02
1.025493e+03
8.268123e+02
8.303287e+02
7.956035e+02
9.142847e+02
8.430759e+02
8.738452e+02
8.975814e+02
8.663726e+02
9.178011e+02
8.382408e+02
1.070328e+03
8.140650e+02
9.037352e+02
8.571418e+02
9.327462e+02
8.523067e+02
8.641748e+02
8.839550e+02
8.778012e+02
9.309879e+02
8.228562e+02
9.314275e+02
7.868123e+02
8.668122e+02
9.428561e+02
9.120869e+02
8.536254e+02
7.942848e+02
1.028131e+03
9.037352e+02
8.360430e+02
8.663726e+02
9.142847e+02
8.698891e+02
9.098890e+02
9.270319e+02
8.971418e+02
8.694496e+02
8.892297e+02
8.026365e+02
8.228562e+02
8.514276e+02
8.518672e+02
9.156033e+02
9.507681e+02
9.221968e+02
8.575814e+02
9.265923e+02
8.527463e+02
9.134055e+02
9.472516e+02
9.261528e+02
8.707682e+02
8.303287e+02
9.283506e+02
7.810980e+02
9.024166e+02
8.738452e+02
8.514276e+02
9.195594e+02
9.221968e+02
8.839550e+02
8.817572e+02
9.265923e+02
8.685704e+02
9.252737e+02
8.817572e+02
8.052738e+02
8.826364e+02
9.142847e+02
8.852737e+02
9.002188e+02
9.059330e+02
9.323066e+02
8.272518e+02
8.729661e+02
9.107682e+02
8.958231e+02
8.971418e+02
8.909880e+02
8.887902e+02
9.050539e+02
8.923066e+02
8.668122e+02
8.852737e+02
9.604385e+02
8.738452e+02
8.632957e+02
9.635154e+02
8.567023e+02
8.778012e+02
8.536254e+02
8.870320e+02
8.826364e+02
8.786803e+02
9.107682e+02
9.098890e+02
8.975814e+02
8.949440e+02
8.865924e+02
8.874715e+02
8.843946e+02
8.848342e+02
8.962627e+02
8.962627e+02
9.059330e+02
8.874715e+02
8.958231e+02
8.918671e+02
9.024166e+02
9.002188e+02
8.927462e+02
9.072517e+02
9.006583e+02
8.958231e+02
8.962627e+02
8.909880e+02
8.953836e+02
9.028561e+02
9.151638e+02
9.204385e+02
9.380209e+02
9.564824e+02
9.410978e+02
8.997792e+02
8.962627e+02
9.072517e+02
9.419769e+02
9.239550e+02
9.182407e+02
9.358231e+02
9.432957e+02
9.028561e+02
8.945045e+02
9.116473e+02
8.826364e+02
8.901089e+02
8.949440e+02
8.681309e+02
8.786803e+02
8.804385e+02
8.742847e+02
8.725265e+02
8.698891e+02
8.725265e+02
8.804385e+02
8.923066e+02
8.971418e+02
8.751638e+02
8.641748e+02
8.479111e+02
8.540649e+02
8.602188e+02
8.703287e+02
8.756034e+02
8.738452e+02
8.562628e+02
8.509880e+02
8.553837e+02
8.672518e+02
8.813177e+02
8.835155e+02
8.861528e+02
8.778012e+02
8.523067e+02
8.224166e+02
8.043947e+02
8.017573e+02
8.180211e+02
8.571418e+02
8.738452e+02
8.769221e+02
8.905485e+02
9.024166e+02
9.195594e+02
9.195594e+02
9.274714e+02
9.358231e+02
9.402187e+02
9.371418e+02
9.358231e+02
9.327462e+02
9.279110e+02
9.279110e+02
9.362627e+02
9.424165e+02
9.463726e+02
9.503286e+02
9.529659e+02
9.599989e+02
9.762626e+02
1.014944e+03
1.122636e+03
7.248344e+02
7.261530e+02
7.560431e+02
7.920870e+02
8.065925e+02
8.338452e+02
8.452737e+02
8.457133e+02
8.593397e+02
8.729661e+02
8.778012e+02
8.799990e+02
8.813177e+02
8.835155e+02
8.817572e+02
8.826364e+02
8.865924e+02
8.843946e+02
8.760430e+02
8.742847e+02
8.808781e+02
8.799990e+02
8.830759e+02
8.848342e+02
8.852737e+02
8.870320e+02
8.984605e+02
8.984605e+02
9.010979e+02
8.958231e+02
8.892297e+02
8.914276e+02
8.940649e+02
9.006583e+02
8.989001e+02
9.015374e+02
8.997792e+02
8.971418e+02
8.940649e+02
8.905485e+02
8.905485e+02
8.927462e+02
8.949440e+02
8.984605e+02
9.019770e+02
8.980209e+02
8.931858e+02
8.852737e+02
8.857133e+02
8.857133e+02
8.905485e+02
8.967023e+02
8.940649e+02
8.936254e+02
8.887902e+02
8.843946e+02
8.835155e+02
8.839550e+02
8.901089e+02
8.892297e+02
8.967023e+02
8.936254e+02
8.892297e+02
8.870320e+02
8.848342e+02
8.830759e+02
8.874715e+02
8.905485e+02
8.949440e+02
8.901089e+02
9.006583e+02
8.918671e+02
8.861528e+02
8.852737e+02
8.874715e+02
8.914276e+02
8.967023e+02
8.980209e+02
8.989001e+02
8.953836e+02
8.892297e+02
8.901089e+02
8.896693e+02
8.905485e+02
8.940649e+02
8.962627e+02
8.984605e+02
8.962627e+02
8.936254e+02
8.883506e+02
8.786803e+02
8.747242e+02
8.795594e+02
8.839550e+02
8.870320e+02
8.857133e+02
8.817572e+02
8.791199e+02
8.773616e+02
8.791199e+02
8.848342e+02
8.905485e+02
8.914276e+02
8.914276e+02
8.870320e+02
8.808781e+02
8.804385e+02
8.799990e+02
8.835155e+02
8.896693e+02
8.909880e+02
8.918671e+02
8.892297e+02
8.865924e+02
8.839550e+02
8.826364e+02
8.848342e+02
8.879111e+02
8.918671e+02
8.936254e+02
8.857133e+02
8.896693e+02
8.852737e+02
8.835155e+02
8.861528e+02
8.901089e+02
8.945045e+02
8.958231e+02
8.962627e+02
8.923066e+02
8.861528e+02
8.861528e+02
8.848342e+02
8.883506e+02
8.923066e+02
8.936254e+02
8.940649e+02
8.896693e+02
8.857133e+02
8.826364e+02
8.826364e+02
8.857133e+02
8.896693e+02
8.931858e+02
8.958231e+02
8.931858e+02
8.887902e+02
8.835155e+02
8.821968e+02
8.839550e+02
8.874715e+02
8.940649e+02
8.940649e+02
8.931858e+02
8.887902e+02
8.835155e+02
8.839550e+02
8.830759e+02
8.865924e+02
8.918671e+02
8.940649e+02
8.945045e+02
8.914276e+02
8.883506e+02
8.848342e+02
8.835155e+02
8.874715e+02
8.909880e+02
8.945045e+02
8.967023e+02
8.940649e+02
8.892297e+02
8.874715e+02
8.852737e+02
8.852737e+02
8.887902e+02
8.945045e+02
8.958231e+02
8.945045e+02
8.901089e+02
8.865924e+02
8.839550e+02
8.839550e+02
8.874715e+02
8.918671e+02
8.953836e+02
8.940649e+02
8.914276e+02
8.892297e+02
8.843946e+02
8.843946e+02
8.874715e+02
8.901089e+02
8.936254e+02
8.958231e+02
8.931858e+02
8.901089e+02
8.848342e+02
8.839550e+02
8.861528e+02
8.896693e+02
8.945045e+02
8.962627e+02
8.940649e+02
8.896693e+02
8.852737e+02
8.839550e+02
8.826364e+02
8.883506e+02
8.923066e+02
8.936254e+02
8.940649e+02
8.931858e+02
8.892297e+02
8.852737e+02
8.852737e+02
8.874715e+02
8.901089e+02
8.940649e+02
8.962627e+02
8.936254e+02
8.905485e+02
8.857133e+02
8.857133e+02
8.865924e+02
8.896693e+02
8.949440e+02
8.949440e+02
8.953836e+02
8.896693e+02
8.857133e+02
8.835155e+02
8.843946e+02
8.870320e+02
8.923066e+02
8.940649e+02
8.940649e+02
8.927462e+02
8.887902e+02
8.835155e+02
8.835155e+02
8.870320e+02
8.887902e+02
8.936254e+02
8.958231e+02
8.931858e+02
8.887902e+02
8.852737e+02
8.826364e+02
8.843946e+02
8.887902e+02
8.949440e+02
8.958231e+02
8.945045e+02
8.901089e+02
8.848342e+02
8.839550e+02
8.839550e+02
8.865924e+02
8.901089e+02
8.940649e+02
8.953836e+02
8.923066e+02
8.879111e+02
8.848342e+02
8.826364e+02
8.852737e+02
8.883506e+02
8.909880e+02
8.927462e+02
8.901089e+02
8.883506e+02
8.852737e+02
8.817572e+02
8.843946e+02
8.830759e+02
8.958231e+02
8.958231e+02
8.975814e+02
8.940649e+02
8.870320e+02
8.843946e+02
8.843946e+02
8.883506e+02
8.936254e+02
8.962627e+02
8.953836e+02
8.927462e+02
8.896693e+02
8.848342e+02
8.843946e+02
8.870320e+02
8.892297e+02
8.953836e+02
8.958231e+02
8.927462e+02
8.896693e+02
8.839550e+02
8.830759e+02
8.848342e+02
8.896693e+02
8.949440e+02
8.958231e+02
8.945045e+02
8.909880e+02
8.852737e+02
8.839550e+02
8.852737e+02
8.883506e+02
8.914276e+02
8.936254e+02
8.927462e+02
8.918671e+02
8.870320e+02
8.852737e+02
8.839550e+02
8.879111e+02
8.901089e+02
8.953836e+02
8.962627e+02
8.923066e+02
8.896693e+02
8.852737e+02
8.848342e+02
8.852737e+02
8.826364e+02
8.962627e+02
8.958231e+02
8.962627e+02
8.918671e+02
8.857133e+02
8.870320e+02
8.843946e+02
8.892297e+02
8.909880e+02
8.945045e+02
8.949440e+02
8.914276e+02
8.892297e+02
8.852737e+02
8.843946e+02
8.887902e+02
8.918671e+02
8.962627e+02
8.971418e+02
8.940649e+02
8.883506e+02
8.839550e+02
8.817572e+02
8.848342e+02
8.892297e+02
8.949440e+02
8.945045e+02
8.949440e+02
8.905485e+02
8.861528e+02
8.843946e+02
8.843946e+02
8.883506e+02
8.936254e+02
8.958231e+02
8.940649e+02
8.918671e+02
8.892297e+02
8.848342e+02
8.843946e+02
8.879111e+02
8.914276e+02
8.949440e+02
8.962627e+02
8.927462e+02
8.892297e+02
8.852737e+02
8.839550e+02
8.857133e+02
8.896693e+02
8.883506e+02
8.975814e+02
8.971418e+02
8.918671e+02
8.857133e+02
8.843946e+02
8.817572e+02
8.923066e+02
8.918671e+02
8.927462e+02
8.958231e+02
8.923066e+02
8.892297e+02
8.852737e+02
8.839550e+02
8.883506e+02
8.901089e+02
8.936254e+02
8.949440e+02
8.958231e+02
8.892297e+02
8.839550e+02
8.830759e+02
8.839550e+02
8.914276e+02
8.936254e+02
8.936254e+02
8.958231e+02
8.923066e+02
8.857133e+02
8.835155e+02
8.843946e+02
8.892297e+02
8.923066e+02
8.962627e+02
8.958231e+02
8.914276e+02
8.901089e+02
8.848342e+02
8.839550e+02
8.870320e+02
8.896693e+02
8.927462e+02
8.958231e+02
8.927462e+02
8.892297e+02
8.839550e+02
8.830759e+02
8.848342e+02
8.901089e+02
8.936254e+02
8.923066e+02
8.971418e+02
8.931858e+02
8.821968e+02
8.843946e+02
8.839550e+02
8.901089e+02
8.927462e+02
8.936254e+02
8.931858e+02
8.914276e+02
8.879111e+02
8.839550e+02
8.830759e+02
8.865924e+02
8.892297e+02
8.940649e+02
8.953836e+02
8.940649e+02
8.901089e+02
8.848342e+02
8.835155e+02
8.839550e+02
8.874715e+02
8.945045e+02
8.953836e+02
8.949440e+02
8.923066e+02
8.870320e+02
8.843946e+02
8.848342e+02
8.879111e+02
8.909880e+02
8.940649e+02
8.953836e+02
8.914276e+02
8.892297e+02
8.861528e+02
8.835155e+02
8.861528e+02
8.896693e+02
8.936254e+02
8.953836e+02
8.936254e+02
8.901089e+02
8.843946e+02
8.835155e+02
8.852737e+02
8.896693e+02
8.958231e+02
8.945045e+02
8.953836e+02
8.905485e+02
8.839550e+02
8.848342e+02
8.870320e+02
8.892297e+02
8.918671e+02
8.953836e+02
8.940649e+02
8.923066e+02
8.879111e+02
8.857133e+02
8.835155e+02
8.865924e+02
8.923066e+02
8.909880e+02
8.945045e+02
8.931858e+02
8.892297e+02
8.843946e+02
8.835155e+02
8.848342e+02
8.901089e+02
8.914276e+02
8.945045e+02
8.962627e+02
8.909880e+02
8.857133e+02
8.843946e+02
8.848342e+02
8.879111e+02
8.918671e+02
8.945045e+02
8.945045e+02
8.931858e+02
8.892297e+02
8.861528e+02
8.843946e+02
8.874715e+02
8.870320e+02
9.010979e+02
8.923066e+02
8.918671e+02
8.901089e+02
8.848342e+02
8.857133e+02
8.786803e+02
8.975814e+02
9.072517e+02
8.874715e+02
8.861528e+02
8.883506e+02
8.843946e+02
8.773616e+02
8.914276e+02
8.874715e+02
8.874715e+02
8.909880e+02
8.914276e+02
9.032957e+02
8.883506e+02
8.672518e+02
8.870320e+02
8.835155e+02
8.971418e+02
8.927462e+02
8.962627e+02
8.949440e+02
8.909880e+02
8.865924e+02
8.865924e+02
8.808781e+02
8.756034e+02
9.156033e+02
8.852737e+02
8.725265e+02
9.239550e+02
8.989001e+02
8.650540e+02
8.883506e+02
8.312078e+02
9.147242e+02
8.989001e+02
8.918671e+02
8.826364e+02
8.835155e+02
8.861528e+02
8.799990e+02
8.975814e+02
8.756034e+02
9.547242e+02
8.531859e+02
9.019770e+02
8.804385e+02
9.569220e+02
9.002188e+02
8.443947e+02
9.270319e+02
7.815376e+02
9.731857e+02
9.432957e+02
9.718670e+02
8.237354e+02
8.637353e+02
8.971418e+02
9.138451e+02
7.556035e+02
1.110328e+03
9.257133e+02
8.619771e+02
7.371420e+02
1.024175e+03
8.061530e+02
9.063726e+02
8.879111e+02
8.725265e+02
7.758233e+02
8.896693e+02
9.063726e+02
8.580210e+02
8.993396e+02
8.435155e+02
8.821968e+02
9.718670e+02
6.065927e+02
8.799990e+02
8.909880e+02
9.120869e+02
8.540649e+02
8.663726e+02
8.927462e+02
8.092299e+02
8.848342e+02
8.799990e+02
8.861528e+02
9.081309e+02
8.325265e+02
8.769221e+02
9.076913e+02
8.694496e+02
8.659331e+02
9.028561e+02
8.918671e+02
8.993396e+02
9.019770e+02
8.448342e+02
7.797793e+02
9.960428e+02
8.799990e+02
8.268123e+02
8.461529e+02
8.778012e+02
9.626362e+02
8.465924e+02
8.347243e+02
1.019779e+03
8.628561e+02
8.896693e+02
9.929659e+02
8.905485e+02
9.393396e+02
8.426364e+02
9.072517e+02
8.659331e+02
9.072517e+02
9.327462e+02
8.734056e+02
9.182407e+02
8.694496e+02
8.685704e+02
9.367022e+02
8.716473e+02
8.949440e+02
1.021098e+03
9.006583e+02
7.617574e+02
8.615375e+02
8.602188e+02
8.210980e+02
8.650540e+02
8.527463e+02
8.914276e+02
8.435155e+02
9.028561e+02
8.949440e+02
8.558232e+02
8.835155e+02
8.057134e+02
7.459332e+02
8.114276e+02
9.472516e+02
9.832956e+02
9.006583e+02
9.169220e+02
9.362627e+02
9.063726e+02
9.389000e+02
9.112078e+02
8.681309e+02
9.534055e+02
9.727462e+02
9.257133e+02
8.197793e+02
9.217572e+02
8.826364e+02
8.215375e+02
1.050109e+03
8.483507e+02
8.373617e+02
8.518672e+02
9.942845e+02
9.626362e+02
9.643945e+02
9.059330e+02
8.984605e+02
9.248341e+02
8.989001e+02
8.558232e+02
9.318671e+02
8.892297e+02
9.125264e+02
8.676913e+02
9.103286e+02
7.828563e+02
8.848342e+02
8.791199e+02
8.751638e+02
8.747242e+02
9.850538e+02
8.035156e+02
8.923066e+02
9.367022e+02
9.120869e+02
8.646144e+02
9.063726e+02
8.676913e+02
8.782407e+02
9.046144e+02
8.698891e+02
9.252737e+02
5.824169e+02
7.797793e+02
8.931858e+02
8.408782e+02
8.589001e+02
8.312078e+02
8.901089e+02
8.694496e+02
9.648340e+02
7.556035e+02
1.132746e+03
8.835155e+02
8.804385e+02
8.742847e+02
8.624166e+02
8.747242e+02
8.971418e+02
9.125264e+02
8.971418e+02
9.182407e+02
8.958231e+02
8.909880e+02
8.316474e+02
1.056263e+03
9.098890e+02
8.672518e+02
9.208781e+02
9.538451e+02
8.694496e+02
9.028561e+02
8.870320e+02
8.378013e+02
8.615375e+02
9.709879e+02
9.103286e+02
8.189001e+02
9.063726e+02
8.646144e+02
8.945045e+02
8.580210e+02
8.268123e+02
7.863727e+02
1.016263e+03
8.189001e+02
9.358231e+02
9.569220e+02
9.103286e+02
8.892297e+02
8.030760e+02
8.329661e+02
8.773616e+02
9.630758e+02
8.654935e+02
9.643945e+02
8.923066e+02
7.846145e+02
8.549441e+02
8.395594e+02
8.672518e+02
8.980209e+02
1.034285e+03
8.351639e+02
8.835155e+02
9.081309e+02
9.230759e+02
9.239550e+02
9.674714e+02
9.375814e+02
9.415374e+02
9.120869e+02
8.808781e+02
8.650540e+02
8.650540e+02
8.725265e+02
8.817572e+02
8.804385e+02
9.098890e+02
8.883506e+02
8.879111e+02
8.870320e+02
8.773616e+02
9.015374e+02
8.883506e+02
8.971418e+02
8.984605e+02
8.975814e+02
8.923066e+02
8.857133e+02
8.848342e+02
8.865924e+02
8.887902e+02
8.923066e+02
8.971418e+02
9.010979e+02
9.010979e+02
8.945045e+02
8.874715e+02
8.830759e+02
8.879111e+02
8.931858e+02
8.989001e+02
9.041748e+02
9.041748e+02
9.010979e+02
8.975814e+02
8.980209e+02
9.037352e+02
9.081309e+02
9.173616e+02
9.204385e+02
9.252737e+02
9.217572e+02
9.292297e+02
9.446143e+02
9.947241e+02
9.490099e+02
9.665923e+02
9.041748e+02
8.602188e+02
8.712078e+02
8.778012e+02
8.830759e+02
8.694496e+02
9.120869e+02
8.764825e+02
8.760430e+02
8.734056e+02
8.795594e+02
8.690100e+02
8.632957e+02
8.562628e+02
8.474716e+02
8.602188e+02
8.654935e+02
8.769221e+02
8.839550e+02
8.839550e+02
8.817572e+02
8.865924e+02
8.830759e+02
8.852737e+02
8.852737e+02
8.870320e+02
8.870320e+02
8.804385e+02
8.756034e+02
8.729661e+02
8.729661e+02
8.769221e+02
8.830759e+02
8.879111e+02
8.852737e+02
8.887902e+02
8.839550e+02
8.791199e+02
8.804385e+02
8.813177e+02
8.883506e+02
8.887902e+02
8.883506e+02
8.901089e+02
8.883506e+02
8.896693e+02
8.870320e+02
8.865924e+02
8.870320e+02
8.865924e+02
8.874715e+02
8.817572e+02
9.028561e+02
8.791199e+02
8.923066e+02
8.887902e+02
8.914276e+02
8.892297e+02
8.927462e+02
8.971418e+02
8.984605e+02
8.931858e+02
8.879111e+02
8.865924e+02
8.852737e+02
8.879111e+02
8.914276e+02
8.923066e+02
8.931858e+02
8.879111e+02
8.826364e+02
8.799990e+02
8.795594e+02
8.821968e+02
8.852737e+02
8.879111e+02
8.817572e+02
8.769221e+02
8.738452e+02
8.725265e+02
8.742847e+02
8.799990e+02
8.848342e+02
8.879111e+02
8.883506e+02
8.843946e+02
8.808781e+02
8.764825e+02
8.773616e+02
8.778012e+02
8.839550e+02
8.914276e+02
8.914276e+02
8.923066e+02
8.883506e+02
8.826364e+02
8.808781e+02
8.830759e+02
8.870320e+02
8.905485e+02
8.940649e+02
8.931858e+02
8.909880e+02
8.883506e+02
8.865924e+02
8.887902e+02
8.909880e+02
8.914276e+02
8.918671e+02
8.892297e+02
8.861528e+02
8.804385e+02
8.760430e+02
8.782407e+02
8.821968e+02
8.909880e+02
8.997792e+02
9.037352e+02
9.072517e+02
9.037352e+02
8.967023e+02
8.923066e+02
8.905485e+02
8.892297e+02
8.909880e+02
8.931858e+02
8.927462e+02
8.879111e+02
8.835155e+02
8.830759e+02
8.799990e+02
8.830759e+02
8.861528e+02
8.901089e+02
8.909880e+02
8.914276e+02
8.865924e+02
8.826364e+02
8.826364e+02
8.843946e+02
8.870320e+02
8.905485e+02
8.923066e+02
8.914276e+02
8.879111e+02
8.865924e+02
8.870320e+02
8.830759e+02
8.971418e+02
8.945045e+02
8.993396e+02
8.989001e+02
8.949440e+02
8.901089e+02
8.852737e+02
8.843946e+02
8.865924e+02
8.892297e+02
8.918671e+02
8.914276e+02
8.936254e+02
8.879111e+02
8.852737e+02
8.751638e+02
8.945045e+02
8.795594e+02
8.738452e+02
9.230759e+02
8.967023e+02
8.742847e+02
8.887902e+02
8.843946e+02
8.914276e+02
8.892297e+02
8.905485e+02
9.002188e+02
8.799990e+02
8.637353e+02
9.525264e+02
8.650540e+02
8.690100e+02
8.905485e+02
8.901089e+02
8.756034e+02
8.940649e+02
8.949440e+02
8.931858e+02
8.830759e+02
8.826364e+02
8.742847e+02
8.720869e+02
9.138451e+02
8.452737e+02
9.551638e+02
8.909880e+02
8.769221e+02
8.567023e+02
8.865924e+02
8.883506e+02
8.980209e+02
9.340649e+02
8.646144e+02
8.887902e+02
7.934057e+02
9.635154e+02
9.683505e+02
8.589001e+02
8.738452e+02
9.041748e+02
9.235154e+02
8.826364e+02
8.909880e+02
9.454934e+02
8.694496e+02
8.610979e+02
8.654935e+02
8.848342e+02
9.362627e+02
8.430759e+02
9.028561e+02
7.520870e+02
8.738452e+02
9.432957e+02
7.986804e+02
8.237354e+02
9.010979e+02
9.274714e+02
9.318671e+02
8.558232e+02
9.714275e+02
8.101089e+02
9.098890e+02
9.239550e+02
8.123068e+02
1.090548e+03
8.325265e+02
9.138451e+02
8.681309e+02
9.397792e+02
8.118672e+02
8.487902e+02
8.786803e+02
9.147242e+02
8.531859e+02
9.327462e+02
8.676913e+02
9.441747e+02
9.463726e+02
8.936254e+02
8.799990e+02
9.024166e+02
8.958231e+02
8.962627e+02
9.129660e+02
8.760430e+02
8.817572e+02
8.821968e+02
9.028561e+02
8.914276e+02
9.024166e+02
9.024166e+02
8.989001e+02
8.936254e+02
8.931858e+02
8.936254e+02
8.980209e+02
9.041748e+02
9.041748e+02
9.028561e+02
9.002188e+02
8.949440e+02
8.909880e+02
8.923066e+02
8.953836e+02
8.962627e+02
9.002188e+02
8.989001e+02
8.936254e+02
8.914276e+02
8.892297e+02
8.861528e+02
8.896693e+02
8.949440e+02
9.010979e+02
9.032957e+02
9.037352e+02
9.032957e+02
9.006583e+02
9.015374e+02
9.019770e+02
9.072517e+02
9.138451e+02
9.041748e+02
9.068121e+02
9.063726e+02
8.962627e+02
8.879111e+02
8.909880e+02
8.975814e+02
8.989001e+02
9.063726e+02
9.134055e+02
9.107682e+02
9.050539e+02
9.015374e+02
8.918671e+02
8.905485e+02
8.949440e+02
8.914276e+02
8.813177e+02
8.799990e+02
8.808781e+02
8.694496e+02
8.734056e+02
8.764825e+02
8.799990e+02
8.892297e+02
8.953836e+02
8.927462e+02
8.874715e+02
8.742847e+02
8.786803e+02
8.874715e+02
8.826364e+02
8.835155e+02
8.703287e+02
9.015374e+02
8.650540e+02
8.716473e+02
8.694496e+02
8.694496e+02
8.747242e+02
8.997792e+02
8.826364e+02
8.923066e+02
8.694496e+02
8.892297e+02
7.951639e+02
9.178011e+02
9.287902e+02
8.448342e+02
9.037352e+02
8.474716e+02
8.971418e+02
8.263727e+02
9.120869e+02
8.259331e+02
8.584606e+02
8.892297e+02
8.290100e+02
9.534055e+02
9.138451e+02
8.351639e+02
8.549441e+02
8.729661e+02
8.637353e+02
9.094495e+02
9.643945e+02
8.004387e+02
8.004387e+02
8.786803e+02
9.657132e+02
7.986804e+02
9.617571e+02
8.408782e+02
8.061530e+02
8.901089e+02
9.046144e+02
9.169220e+02
8.580210e+02
8.782407e+02
9.538451e+02
9.349440e+02
8.523067e+02
8.769221e+02
9.556033e+02
8.848342e+02
9.714275e+02
7.920870e+02
8.224166e+02
9.037352e+02
9.595593e+02
9.296693e+02
9.098890e+02
9.063726e+02
9.503286e+02
8.734056e+02
9.169220e+02
9.138451e+02
9.037352e+02
9.393396e+02
9.120869e+02
9.050539e+02
9.476912e+02
7.890101e+02
9.213176e+02
8.874715e+02
8.861528e+02
8.514276e+02
9.147242e+02
8.545045e+02
9.024166e+02
8.738452e+02
9.186803e+02
8.632957e+02
9.305484e+02
9.204385e+02
8.690100e+02
8.747242e+02
8.672518e+02
9.969219e+02
9.507681e+02
8.914276e+02
8.707682e+02
8.984605e+02
8.074716e+02
9.745044e+02
9.507681e+02
8.624166e+02
7.793398e+02
8.892297e+02
8.918671e+02
8.826364e+02
9.305484e+02
9.999988e+02
9.362627e+02
9.002188e+02
9.204385e+02
9.362627e+02
8.501089e+02
8.712078e+02
8.975814e+02
8.874715e+02
9.657132e+02
9.076913e+02
8.989001e+02
8.452737e+02
1.042636e+03
8.602188e+02
9.252737e+02
8.536254e+02
9.041748e+02
9.032957e+02
9.173616e+02
8.782407e+02
8.914276e+02
9.010979e+02
9.019770e+02
9.046144e+02
8.848342e+02
8.742847e+02
8.826364e+02
8.848342e+02
8.839550e+02
8.865924e+02
8.813177e+02
8.848342e+02
8.901089e+02
8.971418e+02
9.006583e+02
9.032957e+02
8.989001e+02
8.927462e+02
8.826364e+02
8.945045e+02
8.857133e+02
8.914276e+02
8.918671e+02
8.940649e+02
8.984605e+02
9.006583e+02
8.826364e+02
8.813177e+02
8.883506e+02
8.967023e+02
9.015374e+02
8.927462e+02
8.795594e+02
8.747242e+02
8.769221e+02
8.799990e+02
8.760430e+02
8.852737e+02
8.896693e+02
8.914276e+02
8.892297e+02
8.839550e+02
8.808781e+02
8.799990e+02
8.791199e+02
8.835155e+02
8.865924e+02
8.887902e+02
8.896693e+02
8.883506e+02
8.852737e+02
8.830759e+02
8.839550e+02
8.874715e+02
8.927462e+02
8.945045e+02
8.971418e+02
8.945045e+02
8.914276e+02
8.857133e+02
8.839550e+02
8.839550e+02
8.874715e+02
8.905485e+02
8.914276e+02
8.905485e+02
8.879111e+02
8.817572e+02
8.830759e+02
8.742847e+02
8.870320e+02
8.923066e+02
8.936254e+02
8.936254e+02
8.905485e+02
8.870320e+02
8.843946e+02
8.857133e+02
8.887902e+02
8.909880e+02
8.953836e+02
8.945045e+02
8.923066e+02
8.883506e+02
8.852737e+02
8.843946e+02
8.870320e+02
8.909880e+02
8.958231e+02
8.967023e+02
8.949440e+02
8.901089e+02
8.861528e+02
8.852737e+02
8.852737e+02
8.892297e+02
8.940649e+02
8.949440e+02
8.971418e+02
8.914276e+02
8.874715e+02
8.835155e+02
8.830759e+02
8.857133e+02
8.879111e+02
8.927462e+02
8.931858e+02
8.905485e+02
8.870320e+02
8.848342e+02
8.826364e+02
8.861528e+02
8.896693e+02
8.931858e+02
8.936254e+02
8.923066e+02
8.887902e+02
8.826364e+02
8.848342e+02
8.848342e+02
8.887902e+02
8.945045e+02
8.958231e+02
8.892297e+02
8.953836e+02
8.905485e+02
8.857133e+02
8.848342e+02
8.887902e+02
8.901089e+02
8.940649e+02
8.940649e+02
8.918671e+02
8.887902e+02
8.857133e+02
8.865924e+02
8.874715e+02
8.874715e+02
8.905485e+02
8.918671e+02
8.940649e+02
8.914276e+02
8.874715e+02
8.879111e+02
8.874715e+02
8.909880e+02
8.971418e+02
8.967023e+02
8.953836e+02
8.927462e+02
8.879111e+02
8.839550e+02
8.830759e+02
8.839550e+02
8.857133e+02
8.896693e+02
8.909880e+02
8.892297e+02
8.870320e+02
8.839550e+02
8.843946e+02
8.892297e+02
8.923066e+02
8.962627e+02
8.980209e+02
8.945045e+02
8.901089e+02
8.852737e+02
8.830759e+02
8.830759e+02
8.861528e+02
8.909880e+02
8.953836e+02
8.931858e+02
8.852737e+02
8.931858e+02
8.628561e+02
9.151638e+02
8.883506e+02
8.813177e+02
8.892297e+02
8.896693e+02
9.019770e+02
8.826364e+02
8.804385e+02
8.901089e+02
8.756034e+02
8.804385e+02
8.958231e+02
9.032957e+02
9.046144e+02
8.756034e+02
8.962627e+02
8.729661e+02
8.940649e+02
8.791199e+02
8.887902e+02
8.769221e+02
8.729661e+02
8.945045e+02
8.879111e+02
8.883506e+02
8.646144e+02
8.905485e+02
8.909880e+02
8.676913e+02
8.575814e+02
9.630758e+02
8.672518e+02
8.536254e+02
8.654935e+02
8.496694e+02
9.195594e+02
9.076913e+02
8.764825e+02
9.164825e+02
8.751638e+02
8.804385e+02
8.589001e+02
9.371418e+02
8.426364e+02
8.993396e+02
9.059330e+02
8.769221e+02
8.914276e+02
9.094495e+02
9.059330e+02
8.606583e+02
9.283506e+02
8.852737e+02
8.668122e+02
8.826364e+02
8.848342e+02
8.782407e+02
8.817572e+02
9.037352e+02
8.457133e+02
9.164825e+02
8.391199e+02
9.085704e+02
8.668122e+02
8.786803e+02
8.518672e+02
9.160429e+02
8.795594e+02
8.501089e+02
9.046144e+02
8.989001e+02
9.125264e+02
8.865924e+02
9.094495e+02
8.914276e+02
8.975814e+02
8.997792e+02
8.778012e+02
9.419769e+02
8.865924e+02
8.962627e+02
9.090099e+02
8.874715e+02
8.843946e+02
8.887902e+02
8.953836e+02
8.993396e+02
9.015374e+02
8.997792e+02
8.958231e+02
8.914276e+02
8.927462e+02
8.945045e+02
8.984605e+02
9.032957e+02
9.019770e+02
8.975814e+02
8.870320e+02
8.918671e+02
8.883506e+02
9.112078e+02
8.848342e+02
8.835155e+02
8.967023e+02
8.971418e+02
8.936254e+02
8.857133e+02
8.839550e+02
8.747242e+02
9.142847e+02
8.624166e+02
9.032957e+02
9.314275e+02
8.817572e+02
8.334056e+02
9.213176e+02
8.712078e+02
8.632957e+02
8.971418e+02
8.799990e+02
9.239550e+02
8.879111e+02
8.861528e+02
8.896693e+02
8.813177e+02
8.791199e+02
8.830759e+02
8.870320e+02
8.953836e+02
8.879111e+02
8.931858e+02
8.927462e+02
8.865924e+02
8.821968e+02
8.870320e+02
8.914276e+02
9.019770e+02
8.980209e+02
8.984605e+02
8.909880e+02
8.852737e+02
8.826364e+02
8.821968e+02
8.848342e+02
8.896693e+02
8.914276e+02
8.936254e+02
8.914276e+02
8.843946e+02
8.870320e+02
8.870320e+02
8.879111e+02
8.905485e+02
8.918671e+02
8.936254e+02
8.870320e+02
8.821968e+02
8.795594e+02
8.795594e+02
8.839550e+02
8.896693e+02
8.953836e+02
8.967023e+02
8.962627e+02
8.914276e+02
8.887902e+02
8.971418e+02
8.901089e+02
8.909880e+02
8.940649e+02
8.949440e+02
8.949440e+02
8.914276e+02
8.909880e+02
8.905485e+02
8.905485e+02
8.940649e+02
8.958231e+02
8.984605e+02
8.989001e+02
8.936254e+02
8.901089e+02
8.857133e+02
8.857133e+02
8.879111e+02
8.927462e+02
8.984605e+02
8.984605e+02
8.980209e+02
8.953836e+02
8.896693e+02
8.901089e+02
8.892297e+02
8.918671e+02
8.936254e+02
8.927462e+02
8.953836e+02
8.927462e+02
8.901089e+02
8.786803e+02
8.821968e+02
8.883506e+02
8.905485e+02
8.993396e+02
8.901089e+02
8.685704e+02
9.046144e+02
9.076913e+02
8.712078e+02
8.962627e+02
8.694496e+02
8.514276e+02
9.538451e+02
8.571418e+02
9.098890e+02
8.773616e+02
8.799990e+02
8.887902e+02
8.799990e+02
8.962627e+02
8.487902e+02
9.621967e+02
8.659331e+02
8.870320e+02
8.769221e+02
8.936254e+02
8.632957e+02
8.989001e+02
8.615375e+02
9.076913e+02
8.874715e+02
8.391199e+02
8.918671e+02
9.164825e+02
8.347243e+02
8.408782e+02
8.945045e+02
8.492298e+02
9.037352e+02
8.650540e+02
8.575814e+02
8.716473e+02
9.283506e+02
8.646144e+02
8.628561e+02
9.178011e+02
9.793395e+02
9.169220e+02
8.646144e+02
9.257133e+02
8.945045e+02
8.545045e+02
8.927462e+02
9.147242e+02
9.090099e+02
8.843946e+02
8.857133e+02
8.927462e+02
8.817572e+02
9.578011e+02
8.734056e+02
8.505485e+02
9.274714e+02
8.632957e+02
8.786803e+02
9.248341e+02
9.235154e+02
9.169220e+02
8.663726e+02
9.186803e+02
8.725265e+02
8.413177e+02
8.769221e+02
9.019770e+02
7.731859e+02
8.523067e+02
8.694496e+02
9.164825e+02
8.949440e+02
9.094495e+02
9.327462e+02
9.046144e+02
9.578011e+02
8.865924e+02
9.318671e+02
8.870320e+02
9.085704e+02
8.729661e+02
9.582407e+02
9.002188e+02
8.883506e+02
8.945045e+02
9.358231e+02
8.703287e+02
8.808781e+02
9.287902e+02
8.799990e+02
9.191198e+02
7.934057e+02
9.617571e+02
8.303287e+02
9.472516e+02
8.791199e+02
8.496694e+02
8.610979e+02
9.076913e+02
8.413177e+02
8.720869e+02
9.252737e+02
8.909880e+02
8.909880e+02
8.887902e+02
8.681309e+02
8.610979e+02
9.024166e+02
9.441747e+02
8.373617e+02
8.747242e+02
8.619771e+02
9.687901e+02
8.443947e+02
9.129660e+02
8.949440e+02
8.052738e+02
1.002636e+03
8.584606e+02
9.032957e+02
8.989001e+02
8.940649e+02
8.496694e+02
9.582407e+02
8.892297e+02
8.936254e+02
8.646144e+02
8.105485e+02
9.665923e+02
8.685704e+02
8.672518e+02
8.870320e+02
9.709879e+02
9.358231e+02
8.905485e+02
8.663726e+02
8.654935e+02
9.182407e+02
8.817572e+02
9.142847e+02
8.712078e+02
9.292297e+02
7.925266e+02
9.169220e+02
8.901089e+02
8.808781e+02
8.395594e+02
8.883506e+02
9.318671e+02
8.263727e+02
9.248341e+02
8.540649e+02
1.035603e+03
8.619771e+02
8.646144e+02
8.914276e+02
8.927462e+02
8.914276e+02
8.742847e+02
8.668122e+02
8.210980e+02
1.038680e+03
9.239550e+02
8.356035e+02
9.112078e+02
8.259331e+02
8.901089e+02
8.782407e+02
8.909880e+02
8.681309e+02
8.782407e+02
9.349440e+02
9.749440e+02
7.824167e+02
9.591198e+02
8.808781e+02
7.978013e+02
8.382408e+02
8.615375e+02
8.997792e+02
9.441747e+02
8.632957e+02
9.626362e+02
9.630758e+02
8.219771e+02
9.063726e+02
9.199990e+02
8.268123e+02
8.558232e+02
9.243945e+02
8.883506e+02
9.116473e+02
9.705483e+02
8.690100e+02
8.681309e+02
8.865924e+02
8.848342e+02
8.949440e+02
9.753835e+02
8.905485e+02
7.410980e+02
9.287902e+02
9.090099e+02
8.791199e+02
8.861528e+02
8.923066e+02
9.432957e+02
8.637353e+02
8.791199e+02
8.918671e+02
8.567023e+02
8.791199e+02
8.958231e+02
8.962627e+02
8.989001e+02
9.046144e+02
8.729661e+02
8.971418e+02
9.270319e+02
8.742847e+02
8.852737e+02
8.984605e+02
9.068121e+02
8.931858e+02
8.909880e+02
8.892297e+02
8.883506e+02
8.923066e+02
8.993396e+02
9.054935e+02
9.028561e+02
8.993396e+02
8.918671e+02
8.892297e+02
8.905485e+02
8.901089e+02
8.931858e+02
9.002188e+02
9.041748e+02
9.156033e+02
9.221968e+02
9.274714e+02
9.463726e+02
9.081309e+02
8.848342e+02
8.953836e+02
9.046144e+02
9.129660e+02
9.019770e+02
9.076913e+02
8.821968e+02
8.821968e+02
8.826364e+02
8.799990e+02
8.795594e+02
8.852737e+02
8.905485e+02
8.830759e+02
8.778012e+02
8.694496e+02
8.738452e+02
8.821968e+02
8.742847e+02
9.002188e+02
8.861528e+02
8.804385e+02
8.901089e+02
8.698891e+02
8.870320e+02
8.808781e+02
8.852737e+02
8.905485e+02
8.945045e+02
8.865924e+02
8.747242e+02
8.821968e+02
8.931858e+02
8.769221e+02
8.883506e+02
8.914276e+02
8.914276e+02
8.892297e+02
8.874715e+02
8.874715e+02
8.804385e+02
8.659331e+02
9.024166e+02
8.892297e+02
8.905485e+02
8.909880e+02
8.852737e+02
8.865924e+02
8.817572e+02
8.835155e+02
8.843946e+02
8.870320e+02
8.887902e+02
8.918671e+02
8.892297e+02
8.865924e+02
8.826364e+02
8.795594e+02
8.813177e+02
8.848342e+02
8.883506e+02
8.892297e+02
8.892297e+02
8.870320e+02
8.830759e+02
8.760430e+02
8.835155e+02
8.870320e+02
8.892297e+02
8.958231e+02
8.940649e+02
8.905485e+02
8.901089e+02
8.865924e+02
8.756034e+02
8.905485e+02
8.883506e+02
8.953836e+02
8.927462e+02
8.980209e+02
8.923066e+02
8.874715e+02
8.848342e+02
8.852737e+02
8.905485e+02
8.953836e+02
8.940649e+02
8.931858e+02
8.786803e+02
8.905485e+02
8.945045e+02
8.716473e+02
8.751638e+02
8.896693e+02
8.923066e+02
9.094495e+02
8.909880e+02
8.874715e+02
8.879111e+02
8.865924e+02
8.883506e+02
9.156033e+02
8.808781e+02
8.909880e+02
8.734056e+02
8.857133e+02
8.971418e+02
8.764825e+02
8.901089e+02
8.883506e+02
8.945045e+02
8.967023e+02
8.971418e+02
8.540649e+02
8.720869e+02
1.007471e+03
8.505485e+02
8.962627e+02
8.901089e+02
8.945045e+02
8.927462e+02
9.120869e+02
8.694496e+02
8.984605e+02
8.698891e+02
8.887902e+02
8.791199e+02
8.967023e+02
8.852737e+02
9.217572e+02
8.624166e+02
8.742847e+02
8.527463e+02
9.107682e+02
9.046144e+02
8.698891e+02
8.861528e+02
9.626362e+02
8.487902e+02
8.786803e+02
9.380209e+02
8.562628e+02
9.208781e+02
8.874715e+02
9.050539e+02
8.782407e+02
8.901089e+02
8.958231e+02
8.734056e+02
8.830759e+02
8.839550e+02
8.821968e+02
8.909880e+02
8.989001e+02
8.905485e+02
8.716473e+02
8.967023e+02
8.742847e+02
8.795594e+02
8.861528e+02
9.085704e+02
8.848342e+02
8.967023e+02
8.865924e+02
8.799990e+02
8.817572e+02
9.230759e+02
8.672518e+02
8.865924e+02
8.909880e+02
8.958231e+02
8.852737e+02
8.936254e+02
8.786803e+02
9.010979e+02
8.936254e+02
8.606583e+02
8.351639e+02
9.415374e+02
9.230759e+02
8.584606e+02
9.191198e+02
8.175815e+02
9.265923e+02
8.369221e+02
9.125264e+02
9.116473e+02
8.857133e+02
9.270319e+02
8.681309e+02
8.830759e+02
8.975814e+02
8.474716e+02
9.551638e+02
8.659331e+02
8.690100e+02
8.580210e+02
8.936254e+02
8.545045e+02
1.023296e+03
7.859332e+02
9.301088e+02
8.848342e+02
8.967023e+02
8.857133e+02
8.813177e+02
8.650540e+02
8.923066e+02
9.116473e+02
8.879111e+02
8.940649e+02
8.975814e+02
9.098890e+02
8.764825e+02
9.367022e+02
8.804385e+02
8.962627e+02
8.839550e+02
9.041748e+02
8.813177e+02
9.186803e+02
8.672518e+02
9.010979e+02
8.501089e+02
8.901089e+02
8.751638e+02
9.160429e+02
8.764825e+02
9.314275e+02
8.553837e+02
9.142847e+02
8.817572e+02
8.795594e+02
8.962627e+02
8.624166e+02
9.103286e+02
9.116473e+02
9.028561e+02
8.821968e+02
8.791199e+02
8.971418e+02
8.857133e+02
8.571418e+02
8.962627e+02
9.292297e+02
8.817572e+02
8.778012e+02
8.865924e+02
8.562628e+02
9.186803e+02
8.549441e+02
9.367022e+02
8.791199e+02
8.936254e+02
8.786803e+02
8.901089e+02
8.821968e+02
8.360430e+02
9.661527e+02
8.690100e+02
8.756034e+02
9.081309e+02
8.975814e+02
8.756034e+02
9.243945e+02
8.435155e+02
8.923066e+02
8.865924e+02
8.527463e+02
9.235154e+02
8.334056e+02
9.279110e+02
8.980209e+02
8.567023e+02
9.072517e+02
8.980209e+02
8.914276e+02
8.734056e+02
9.028561e+02
8.909880e+02
9.182407e+02
8.971418e+02
8.769221e+02
8.971418e+02
8.958231e+02
9.358231e+02
8.646144e+02
8.738452e+02
8.646144e+02
8.795594e+02
9.591198e+02
8.624166e+02
8.641748e+02
9.024166e+02
9.090099e+02
8.936254e+02
8.857133e+02
8.817572e+02
8.980209e+02
8.883506e+02
8.953836e+02
8.729661e+02
9.147242e+02
9.032957e+02
8.901089e+02
8.751638e+02
8.760430e+02
8.905485e+02
8.826364e+02
9.186803e+02
8.804385e+02
9.248341e+02
8.769221e+02
9.323066e+02
8.553837e+02
8.382408e+02
9.169220e+02
8.773616e+02
8.879111e+02
8.835155e+02
9.006583e+02
8.830759e+02
9.028561e+02
8.865924e+02
8.716473e+02
8.817572e+02
8.909880e+02
8.901089e+02
9.283506e+02
9.032957e+02
8.690100e+02
9.138451e+02
9.142847e+02
8.769221e+02
9.410978e+02
8.799990e+02
9.028561e+02
9.085704e+02
9.094495e+02
8.672518e+02
8.909880e+02
8.870320e+02
8.989001e+02
9.019770e+02
8.945045e+02
8.918671e+02
8.909880e+02
8.887902e+02
8.892297e+02
8.901089e+02
8.967023e+02
9.046144e+02
9.125264e+02
9.032957e+02
8.993396e+02
8.936254e+02
8.905485e+02
8.857133e+02
8.887902e+02
8.918671e+02
8.975814e+02
9.015374e+02
9.028561e+02
8.940649e+02
9.024166e+02
8.892297e+02
8.879111e+02
8.953836e+02
9.002188e+02
9.028561e+02
8.958231e+02
8.879111e+02
8.778012e+02
8.817572e+02
8.712078e+02
8.786803e+02
8.795594e+02
8.843946e+02
8.874715e+02
8.865924e+02
8.778012e+02
8.751638e+02
8.738452e+02
8.764825e+02
8.817572e+02
8.865924e+02
8.879111e+02
8.918671e+02
8.892297e+02
8.848342e+02
8.848342e+02
8.848342e+02
8.892297e+02
8.940649e+02
8.962627e+02
8.953836e+02
8.931858e+02
8.896693e+02
8.861528e+02
8.857133e+02
8.874715e+02
8.909880e+02
8.931858e+02
8.945045e+02
8.931858e+02
8.896693e+02
8.852737e+02
8.826364e+02
8.799990e+02
8.821968e+02
8.879111e+02
8.883506e+02
8.896693e+02
8.874715e+02
8.821968e+02
8.756034e+02
8.830759e+02
8.874715e+02
8.914276e+02
8.940649e+02
8.936254e+02
8.927462e+02
8.901089e+02
8.835155e+02
8.905485e+02
8.857133e+02
8.923066e+02
8.940649e+02
8.980209e+02
9.024166e+02
8.945045e+02
8.773616e+02
8.857133e+02
8.791199e+02
8.909880e+02
8.936254e+02
8.901089e+02
9.019770e+02
8.892297e+02
8.940649e+02
8.848342e+02
8.918671e+02
8.980209e+02
8.989001e+02
8.918671e+02
9.235154e+02
8.663726e+02
8.672518e+02
8.782407e+02
9.384604e+02
8.580210e+02
9.208781e+02
8.773616e+02
8.883506e+02
8.804385e+02
9.059330e+02
9.015374e+02
9.068121e+02
8.307683e+02
8.756034e+02
9.292297e+02
8.927462e+02
9.063726e+02
8.540649e+02
9.687901e+02
8.940649e+02
8.760430e+02
8.694496e+02
8.795594e+02
8.975814e+02
8.949440e+02
9.103286e+02
8.914276e+02
8.435155e+02
8.808781e+02
9.125264e+02
9.169220e+02
8.646144e+02
8.857133e+02
8.918671e+02
8.760430e+02
8.936254e+02
9.098890e+02
8.558232e+02
8.883506e+02
8.545045e+02
9.270319e+02
8.681309e+02
8.848342e+02
8.241749e+02
9.138451e+02
8.672518e+02
8.773616e+02
8.694496e+02
8.760430e+02
9.063726e+02
9.024166e+02
8.905485e+02
8.874715e+02
8.931858e+02
8.672518e+02
8.931858e+02
8.843946e+02
9.287902e+02
8.830759e+02
8.272518e+02
9.635154e+02
8.373617e+02
9.015374e+02
8.426364e+02
8.997792e+02
8.879111e+02
9.134055e+02
8.610979e+02
9.063726e+02
8.769221e+02
8.663726e+02
8.883506e+02
9.028561e+02
8.764825e+02
8.918671e+02
8.958231e+02
9.147242e+02
8.694496e+02
8.751638e+02
8.742847e+02
8.628561e+02
9.107682e+02
9.230759e+02
8.536254e+02
8.514276e+02
8.857133e+02
8.136254e+02
9.287902e+02
8.980209e+02
8.927462e+02
8.918671e+02
8.843946e+02
9.186803e+02
8.606583e+02
8.808781e+02
8.734056e+02
8.835155e+02
9.028561e+02
9.041748e+02
8.826364e+02
8.936254e+02
8.764825e+02
9.085704e+02
8.760430e+02
9.046144e+02
8.756034e+02
9.371418e+02
8.514276e+02
1.025933e+03
8.439551e+02
8.909880e+02
8.334056e+02
8.641748e+02
9.028561e+02
8.518672e+02
9.151638e+02
9.529659e+02
8.118672e+02
8.672518e+02
8.690100e+02
9.569220e+02
8.162628e+02
9.705483e+02
8.760430e+02
8.492298e+02
8.646144e+02
9.424165e+02
8.131859e+02
9.679110e+02
8.729661e+02
9.885703e+02
8.786803e+02
8.641748e+02
8.268123e+02
9.063726e+02
8.496694e+02
7.894496e+02
9.147242e+02
8.307683e+02
8.342848e+02
9.230759e+02
8.931858e+02
8.553837e+02
1.053625e+03
7.718672e+02
8.628561e+02
8.448342e+02
8.215375e+02
9.802186e+02
8.241749e+02
9.287902e+02
7.920870e+02
9.151638e+02
7.868123e+02
9.758231e+02
8.817572e+02
8.857133e+02
8.202189e+02
9.129660e+02
8.861528e+02
9.890099e+02
8.989001e+02
9.287902e+02
8.646144e+02
9.094495e+02
8.338452e+02
8.879111e+02
8.250540e+02
9.010979e+02
9.349440e+02
8.848342e+02
8.799990e+02
1.155164e+03
7.894496e+02
8.461529e+02
9.006583e+02
9.191198e+02
8.808781e+02
8.742847e+02
8.408782e+02
9.041748e+02
8.751638e+02
8.843946e+02
9.006583e+02
9.164825e+02
8.698891e+02
8.725265e+02
9.129660e+02
8.852737e+02
8.782407e+02
8.505485e+02
9.032957e+02
8.681309e+02
9.195594e+02
8.584606e+02
9.160429e+02
9.213176e+02
9.076913e+02
8.254935e+02
9.410978e+02
9.810978e+02
9.006583e+02
8.558232e+02
8.958231e+02
8.492298e+02
8.940649e+02
8.931858e+02
8.914276e+02
9.010979e+02
8.637353e+02
8.843946e+02
8.953836e+02
8.738452e+02
8.813177e+02
8.993396e+02
8.949440e+02
8.927462e+02
9.301088e+02
9.085704e+02
8.936254e+02
8.123068e+02
9.903286e+02
9.081309e+02
8.927462e+02
8.562628e+02
8.914276e+02
8.734056e+02
8.619771e+02
9.608781e+02
8.329661e+02
8.993396e+02
8.764825e+02
8.918671e+02
9.046144e+02
9.204385e+02
8.945045e+02
8.531859e+02
8.369221e+02
8.250540e+02
8.817572e+02
9.191198e+02
9.186803e+02
8.672518e+02
8.589001e+02
8.536254e+02
8.615375e+02
9.186803e+02
7.507684e+02
1.122197e+03
7.283508e+02
9.261528e+02
9.156033e+02
9.353835e+02
8.589001e+02
8.602188e+02
8.628561e+02
9.410978e+02
8.206584e+02
7.367025e+02
8.799990e+02
8.329661e+02
8.584606e+02
8.712078e+02
8.087903e+02
9.881307e+02
7.934057e+02
9.960428e+02
7.912079e+02
8.681309e+02
8.857133e+02
7.929661e+02
9.780209e+02
9.002188e+02
8.914276e+02
9.296693e+02
8.439551e+02
8.773616e+02
8.259331e+02
9.643945e+02
8.764825e+02
6.654938e+02
8.953836e+02
8.654935e+02
7.586804e+02
8.909880e+02
9.991198e+02
9.204385e+02
9.956033e+02
7.564827e+02
9.178011e+02
8.184606e+02
8.923066e+02
9.375814e+02
8.356035e+02
8.021969e+02
7.727463e+02
8.769221e+02
8.826364e+02
8.338452e+02
1.208350e+03
7.116475e+02
9.498890e+02
8.263727e+02
9.846143e+02
8.408782e+02
8.298892e+02
1.010548e+03
8.312078e+02
8.703287e+02
8.290100e+02
9.169220e+02
7.885706e+02
8.514276e+02
8.373617e+02
8.769221e+02
9.199990e+02
8.857133e+02
9.041748e+02
8.734056e+02
9.340649e+02
8.259331e+02
1.003955e+03
8.254935e+02
8.782407e+02
8.123068e+02
9.494495e+02
8.685704e+02
8.835155e+02
8.378013e+02
8.698891e+02
9.380209e+02
8.804385e+02
9.415374e+02
8.509880e+02
9.243945e+02
8.650540e+02
9.028561e+02
8.874715e+02
8.145046e+02
9.771417e+02
8.747242e+02
8.549441e+02
9.120869e+02
8.782407e+02
8.703287e+02
8.940649e+02
8.690100e+02
9.248341e+02
8.892297e+02
9.063726e+02
8.518672e+02
8.707682e+02
8.813177e+02
8.342848e+02
9.960428e+02
8.492298e+02
9.279110e+02
7.542849e+02
1.057142e+03
9.090099e+02
8.861528e+02
8.756034e+02
8.760430e+02
9.283506e+02
8.672518e+02
9.393396e+02
8.782407e+02
8.883506e+02
8.887902e+02
8.857133e+02
8.879111e+02
8.962627e+02
8.870320e+02
8.949440e+02
8.892297e+02
8.896693e+02
8.857133e+02
8.830759e+02
8.835155e+02
8.742847e+02
8.791199e+02
8.791199e+02
9.103286e+02
8.813177e+02
8.927462e+02
8.848342e+02
8.852737e+02
8.795594e+02
8.896693e+02
8.923066e+02
8.892297e+02
8.940649e+02
8.874715e+02
8.852737e+02
8.852737e+02
8.808781e+02
8.835155e+02
8.879111e+02
8.782407e+02
9.002188e+02
8.927462e+02
8.786803e+02
8.892297e+02
8.747242e+02
8.769221e+02
8.905485e+02
8.896693e+02
9.098890e+02
8.879111e+02
8.980209e+02
8.870320e+02
8.826364e+02
8.821968e+02
8.892297e+02
8.927462e+02
8.953836e+02
8.975814e+02
8.883506e+02
8.865924e+02
8.843946e+02
8.826364e+02
8.861528e+02
8.870320e+02
8.923066e+02
8.914276e+02
8.901089e+02
8.874715e+02
8.835155e+02
8.843946e+02
8.821968e+02
8.949440e+02
9.024166e+02
9.072517e+02
9.024166e+02
8.958231e+02
8.909880e+02
8.857133e+02
8.839550e+02
8.861528e+02
8.914276e+02
8.918671e+02
8.945045e+02
8.896693e+02
8.848342e+02
8.857133e+02
8.861528e+02
8.879111e+02
8.892297e+02
8.931858e+02
8.936254e+02
8.909880e+02
8.883506e+02
8.865924e+02
8.852737e+02
8.883506e+02
8.914276e+02
8.962627e+02
8.980209e+02
8.914276e+02
8.962627e+02
8.865924e+02
8.830759e+02
8.923066e+02
8.804385e+02
9.028561e+02
9.037352e+02
8.870320e+02
8.989001e+02
8.707682e+02
8.909880e+02
8.843946e+02
8.927462e+02
9.094495e+02
8.997792e+02
8.931858e+02
8.892297e+02
8.830759e+02
8.887902e+02
8.650540e+02
8.584606e+02
8.848342e+02
8.791199e+02
9.112078e+02
8.589001e+02
9.305484e+02
8.690100e+02
8.874715e+02
8.857133e+02
8.712078e+02
9.547242e+02
8.180211e+02
1.023735e+03
8.254935e+02
9.094495e+02
7.749442e+02
9.912076e+02
8.320870e+02
9.164825e+02
8.364825e+02
9.982406e+02
9.226363e+02
8.760430e+02
8.373617e+02
8.887902e+02
9.538451e+02
9.815374e+02
8.180211e+02
1.002636e+03
8.356035e+02
8.839550e+02
8.760430e+02
9.072517e+02
8.773616e+02
9.059330e+02
9.156033e+02
8.716473e+02
8.835155e+02
1.035603e+03
8.659331e+02
8.628561e+02
8.927462e+02
8.923066e+02
8.127463e+02
9.353835e+02
9.345044e+02
8.584606e+02
8.518672e+02
1.061537e+03
7.608782e+02
8.347243e+02
8.980209e+02
8.892297e+02
8.356035e+02
1.035164e+03
1.114284e+03
7.432958e+02
8.527463e+02
8.751638e+02
9.428561e+02
8.672518e+02
8.738452e+02
9.160429e+02
8.597792e+02
9.134055e+02
8.716473e+02
8.725265e+02
9.279110e+02
8.114276e+02
9.639550e+02
9.226363e+02
1.039999e+03
7.687903e+02
8.712078e+02
8.509880e+02
8.351639e+02
9.296693e+02
9.441747e+02
9.028561e+02
8.861528e+02
1.000438e+03
8.496694e+02
9.679110e+02
8.268123e+02
9.164825e+02
8.848342e+02
8.791199e+02
9.784604e+02
8.909880e+02
8.804385e+02
9.120869e+02
8.509880e+02
8.439551e+02
1.016263e+03
8.364825e+02
8.778012e+02
8.448342e+02
8.580210e+02
8.945045e+02
7.947244e+02
1.132746e+03
9.147242e+02
8.580210e+02
8.395594e+02
7.885706e+02
9.142847e+02
8.725265e+02
7.318673e+02
8.527463e+02
8.984605e+02
8.531859e+02
9.389000e+02
1.066372e+03
1.007911e+03
7.692299e+02
8.175815e+02
8.386804e+02
9.028561e+02
9.534055e+02
8.624166e+02
9.147242e+02
9.793395e+02
8.843946e+02
9.920868e+02
8.975814e+02
8.637353e+02
9.265923e+02
9.402187e+02
8.057134e+02
1.160878e+03
8.531859e+02
8.426364e+02
9.419769e+02
8.650540e+02
8.707682e+02
7.591200e+02
1.007911e+03
7.604387e+02
8.909880e+02
8.883506e+02
8.778012e+02
8.958231e+02
7.142849e+02
8.874715e+02
8.386804e+02
8.523067e+02
9.204385e+02
8.870320e+02
9.573616e+02
7.815376e+02
8.782407e+02
8.698891e+02
7.986804e+02
1.119559e+03
8.083507e+02
8.681309e+02
8.347243e+02
1.000878e+03
8.439551e+02
9.243945e+02
9.397792e+02
1.186372e+03
7.301091e+02
8.892297e+02
9.340649e+02
8.716473e+02
9.309879e+02
9.195594e+02
9.327462e+02
9.248341e+02
9.257133e+02
8.641748e+02
7.960430e+02
1.038680e+03
9.551638e+02
8.105485e+02
8.624166e+02
8.817572e+02
8.276913e+02
8.540649e+02
9.802186e+02
8.228562e+02
8.571418e+02
8.887902e+02
8.426364e+02
8.342848e+02
9.876912e+02
9.331857e+02
8.501089e+02
8.061530e+02
1.125713e+03
9.112078e+02
8.685704e+02
9.006583e+02
9.679110e+02
8.448342e+02
9.226363e+02
7.868123e+02
1.090988e+03
8.180211e+02
9.292297e+02
7.257134e+02
9.151638e+02
8.676913e+02
8.567023e+02
8.918671e+02
8.364825e+02
7.520870e+02
7.780211e+02
9.085704e+02
8.558232e+02
8.237354e+02
9.648340e+02
7.116475e+02
8.760430e+02
9.819769e+02
8.259331e+02
8.659331e+02
8.857133e+02
8.404386e+02
9.832956e+02
7.942848e+02
8.232958e+02
8.474716e+02
8.993396e+02
1.070328e+03
7.397794e+02
8.008782e+02
8.263727e+02
8.580210e+02
8.263727e+02
9.863725e+02
7.283508e+02
9.718670e+02
8.549441e+02
8.659331e+02
8.909880e+02
9.050539e+02
7.454937e+02
1.039559e+03
9.010979e+02
1.050548e+03
7.762628e+02
1.189449e+03
7.982408e+02
9.191198e+02
8.584606e+02
1.017142e+03
9.982406e+02
8.997792e+02
7.283508e+02
9.665923e+02
8.685704e+02
9.050539e+02
9.292297e+02
1.299779e+03
6.817574e+02
9.705483e+02
8.545045e+02
7.450541e+02
9.665923e+02
9.010979e+02
8.756034e+02
8.509880e+02
1.012746e+03
7.665925e+02
9.494495e+02
7.802189e+02
8.404386e+02
8.821968e+02
6.452740e+02
9.815374e+02
8.470320e+02
7.903287e+02
9.358231e+02
8.435155e+02
8.641748e+02
7.635156e+02
9.147242e+02
8.676913e+02
7.591200e+02
1.003076e+03
9.740648e+02
8.848342e+02
7.384607e+02
8.971418e+02
8.839550e+02
8.470320e+02
8.773616e+02
8.865924e+02
8.931858e+02
9.094495e+02
9.340649e+02
8.312078e+02
7.652739e+02
8.883506e+02
9.169220e+02
9.762626e+02
8.650540e+02
9.564824e+02
8.861528e+02
1.047471e+03
9.076913e+02
8.479111e+02
8.971418e+02
9.639550e+02
8.646144e+02
8.131859e+02
8.989001e+02
8.624166e+02
8.892297e+02
9.679110e+02
1.068570e+03
7.731859e+02
9.428561e+02
8.483507e+02
8.606583e+02
9.125264e+02
8.632957e+02
8.281309e+02
9.881307e+02
8.949440e+02
8.676913e+02
8.843946e+02
8.821968e+02
8.923066e+02
8.338452e+02
9.375814e+02
9.006583e+02
8.782407e+02
8.206584e+02
8.039551e+02
8.043947e+02
8.540649e+02
9.063726e+02
8.931858e+02
8.694496e+02
8.931858e+02
8.852737e+02
8.843946e+02
8.685704e+02
8.364825e+02
8.760430e+02
8.610979e+02
8.905485e+02
8.852737e+02
9.103286e+02
8.821968e+02
8.813177e+02
8.808781e+02
8.993396e+02
9.019770e+02
8.892297e+02
9.147242e+02
8.804385e+02
8.848342e+02
8.835155e+02
8.821968e+02
8.852737e+02
8.901089e+02
8.945045e+02
8.953836e+02
8.958231e+02
8.927462e+02
8.887902e+02
8.848342e+02
8.839550e+02
8.857133e+02
8.883506e+02
8.909880e+02
8.931858e+02
8.870320e+02
8.799990e+02
8.769221e+02
8.778012e+02
8.813177e+02
8.870320e+02
8.905485e+02
8.914276e+02
8.918671e+02
8.901089e+02
8.808781e+02
8.826364e+02
8.852737e+02
8.887902e+02
8.923066e+02
8.936254e+02
8.927462e+02
8.905485e+02
8.874715e+02
8.843946e+02
8.848342e+02
8.896693e+02
8.923066e+02
8.971418e+02
8.971418e+02
8.936254e+02
8.901089e+02
8.865924e+02
8.857133e+02
8.839550e+02
8.905485e+02
8.958231e+02
8.962627e+02
8.945045e+02
8.909880e+02
8.865924e+02
8.835155e+02
8.830759e+02
8.843946e+02
8.909880e+02
8.892297e+02
8.923066e+02
8.861528e+02
8.879111e+02
8.835155e+02
8.848342e+02
8.918671e+02
8.927462e+02
9.015374e+02
8.980209e+02
8.949440e+02
8.901089e+02
8.861528e+02
8.852737e+02
8.887902e+02
8.909880e+02
8.962627e+02
8.958231e+02
8.984605e+02
8.931858e+02
8.887902e+02
8.901089e+02
8.879111e+02
8.905485e+02
8.967023e+02
8.967023e+02
8.975814e+02
8.945045e+02
8.901089e+02
8.861528e+02
8.843946e+02
8.901089e+02
8.958231e+02
9.041748e+02
9.050539e+02
9.028561e+02
8.997792e+02
8.848342e+02
8.738452e+02
8.764825e+02
8.778012e+02
8.663726e+02
8.496694e+02
8.382408e+02
8.391199e+02
8.461529e+02
8.606583e+02
8.690100e+02
8.821968e+02
9.098890e+02
9.081309e+02
9.050539e+02
9.076913e+02
9.028561e+02
9.032957e+02
9.032957e+02
9.098890e+02
9.134055e+02
9.129660e+02
9.120869e+02
9.085704e+02
9.032957e+02
8.967023e+02
8.901089e+02
8.940649e+02
8.945045e+02
8.967023e+02
8.984605e+02
8.949440e+02
8.887902e+02
8.865924e+02
8.808781e+02
8.813177e+02
8.857133e+02
8.861528e+02
8.879111e+02
8.901089e+02
8.865924e+02
8.852737e+02
8.830759e+02
8.830759e+02
8.791199e+02
8.887902e+02
8.870320e+02
9.274714e+02
8.901089e+02
8.747242e+02
8.720869e+02
8.931858e+02
8.830759e+02
8.861528e+02
8.843946e+02
9.006583e+02
8.799990e+02
8.883506e+02
8.716473e+02
8.923066e+02
8.993396e+02
8.927462e+02
8.791199e+02
9.010979e+02
9.397792e+02
8.663726e+02
9.010979e+02
8.901089e+02
8.751638e+02
8.738452e+02
9.424165e+02
8.413177e+02
9.485703e+02
8.628561e+02
8.949440e+02
9.129660e+02
9.063726e+02
8.536254e+02
8.967023e+02
8.778012e+02
8.738452e+02
9.015374e+02
8.808781e+02
8.949440e+02
8.751638e+02
9.498890e+02
8.527463e+02
9.248341e+02
8.909880e+02
9.120869e+02
8.694496e+02
8.980209e+02
8.870320e+02
9.002188e+02
9.156033e+02
9.353835e+02
9.147242e+02
9.054935e+02
9.525264e+02
8.215375e+02
8.778012e+02
8.584606e+02
8.703287e+02
8.672518e+02
8.501089e+02
8.773616e+02
9.217572e+02
8.905485e+02
8.285705e+02
8.461529e+02
9.120869e+02
8.808781e+02
8.720869e+02
8.830759e+02
9.635154e+02
8.298892e+02
9.331857e+02
8.123068e+02
9.375814e+02
8.861528e+02
8.571418e+02
8.663726e+02
8.342848e+02
8.879111e+02
9.397792e+02
8.386804e+02
9.006583e+02
9.217572e+02
8.602188e+02
9.630758e+02
8.901089e+02
9.199990e+02
8.940649e+02
9.032957e+02
8.676913e+02
8.716473e+02
9.564824e+02
8.553837e+02
9.709879e+02
9.208781e+02
7.885706e+02
9.942845e+02
8.408782e+02
9.199990e+02
8.764825e+02
7.903287e+02
1.002636e+03
8.747242e+02
8.632957e+02
9.318671e+02
8.298892e+02
8.430759e+02
8.892297e+02
9.287902e+02
8.290100e+02
8.839550e+02
9.670319e+02
1.018021e+03
9.076913e+02
8.839550e+02
8.883506e+02
8.817572e+02
8.509880e+02
1.015383e+03
8.786803e+02
8.338452e+02
8.707682e+02
8.874715e+02
8.593397e+02
9.301088e+02
8.571418e+02
8.531859e+02
9.274714e+02
8.637353e+02
8.514276e+02
8.707682e+02
8.756034e+02
9.463726e+02
8.857133e+02
7.956035e+02
9.345044e+02
8.940649e+02
8.606583e+02
9.468121e+02
9.402187e+02
8.650540e+02
9.239550e+02
8.830759e+02
8.795594e+02
8.786803e+02
9.718670e+02
8.514276e+02
9.204385e+02
8.342848e+02
9.551638e+02
8.804385e+02
8.821968e+02
8.452737e+02
8.474716e+02
9.714275e+02
8.408782e+02
9.806582e+02
8.905485e+02
8.263727e+02
9.125264e+02
8.940649e+02
8.830759e+02
7.490101e+02
1.024614e+03
9.090099e+02
8.479111e+02
8.312078e+02
9.832956e+02
8.386804e+02
8.668122e+02
8.857133e+02
8.861528e+02
9.274714e+02
8.545045e+02
8.808781e+02
9.248341e+02
8.202189e+02
8.452737e+02
8.883506e+02
9.160429e+02
1.064175e+03
7.340651e+02
8.865924e+02
9.120869e+02
8.795594e+02
7.894496e+02
8.703287e+02
1.011867e+03
9.832956e+02
8.254935e+02
8.989001e+02
9.371418e+02
8.479111e+02
8.975814e+02
9.164825e+02
7.956035e+02
1.008350e+03
8.079111e+02
8.435155e+02
8.953836e+02
8.813177e+02
9.270319e+02
8.681309e+02
8.127463e+02
1.042636e+03
7.771420e+02
7.925266e+02
1.159559e+03
8.808781e+02
8.008782e+02
8.008782e+02
9.617571e+02
9.683505e+02
8.426364e+02
1.168350e+03
6.602190e+02
8.632957e+02
6.945047e+02
1.018021e+03
9.643945e+02
7.683508e+02
1.101098e+03
8.101089e+02
7.872518e+02
9.494495e+02
8.857133e+02
9.608781e+02
9.063726e+02
9.090099e+02
1.074284e+03
8.307683e+02
9.749440e+02
1.011867e+03
8.514276e+02
9.380209e+02
1.020219e+03
9.195594e+02
6.756036e+02
9.591198e+02
8.127463e+02
8.756034e+02
8.782407e+02
8.707682e+02
8.079111e+02
8.874715e+02
8.628561e+02
8.865924e+02
8.703287e+02
9.076913e+02
9.859329e+02
8.641748e+02
1.157801e+03
8.386804e+02
9.476912e+02
8.013177e+02
8.224166e+02
9.235154e+02
8.593397e+02
9.063726e+02
8.254935e+02
9.832956e+02
6.799992e+02
9.846143e+02
8.901089e+02
8.654935e+02
8.536254e+02
8.052738e+02
1.046153e+03
9.164825e+02
8.923066e+02
8.637353e+02
1.024614e+03
8.303287e+02
9.283506e+02
9.239550e+02
8.184606e+02
9.046144e+02
8.826364e+02
8.716473e+02
9.560428e+02
9.116473e+02
8.835155e+02
7.832958e+02
6.457136e+02
1.097581e+03
8.237354e+02
7.758233e+02
8.993396e+02
8.518672e+02
8.729661e+02
9.107682e+02
9.780209e+02
1.030768e+03
8.975814e+02
8.945045e+02
8.953836e+02
9.687901e+02
9.410978e+02
7.551639e+02
9.046144e+02
8.632957e+02
8.923066e+02
9.248341e+02
9.059330e+02
8.703287e+02
9.485703e+02
8.342848e+02
7.846145e+02
1.046153e+03
8.989001e+02
8.114276e+02
8.061530e+02
1.158240e+03
8.030760e+02
1.050988e+03
7.309882e+02
8.263727e+02
8.848342e+02
8.202189e+02
7.314277e+02
9.441747e+02
8.096694e+02
8.083507e+02
9.569220e+02
8.417573e+02
9.841747e+02
9.468121e+02
8.356035e+02
8.531859e+02
7.736255e+02
8.773616e+02
9.705483e+02
8.079111e+02
9.213176e+02
8.813177e+02
8.413177e+02
9.494495e+02
8.167024e+02
8.958231e+02
7.406585e+02
1.013186e+03
9.793395e+02
8.839550e+02
8.536254e+02
9.028561e+02
8.756034e+02
8.654935e+02
8.654935e+02
9.116473e+02
7.560431e+02
7.459332e+02
9.560428e+02
8.597792e+02
8.650540e+02
9.481308e+02
6.729662e+02
1.012307e+03
9.265923e+02
8.338452e+02
8.967023e+02
8.061530e+02
9.010979e+02
8.892297e+02
8.465924e+02
8.786803e+02
8.791199e+02
9.050539e+02
9.296693e+02
8.848342e+02
8.953836e+02
8.918671e+02
8.909880e+02
8.883506e+02
8.861528e+02
8.905485e+02
8.945045e+02
8.967023e+02
8.993396e+02
8.940649e+02
8.909880e+02
8.861528e+02
8.848342e+02
8.799990e+02
8.843946e+02
8.918671e+02
8.936254e+02
8.927462e+02
8.857133e+02
8.782407e+02
8.791199e+02
8.799990e+02
8.839550e+02
8.914276e+02
8.918671e+02
8.914276e+02
8.887902e+02
8.782407e+02
8.637353e+02
8.540649e+02
8.540649e+02
8.624166e+02
8.681309e+02
8.791199e+02
8.795594e+02
8.821968e+02
8.857133e+02
8.874715e+02
8.962627e+02
8.962627e+02
9.063726e+02
9.006583e+02
9.054935e+02
9.063726e+02
8.967023e+02
8.980209e+02
8.975814e+02
9.019770e+02
9.046144e+02
9.032957e+02
9.010979e+02
8.962627e+02
8.923066e+02
8.887902e+02
8.931858e+02
8.923066e+02
8.905485e+02
8.914276e+02
8.931858e+02
8.953836e+02
8.962627e+02
8.901089e+02
9.002188e+02
9.032957e+02
9.090099e+02
9.151638e+02
9.129660e+02
9.076913e+02
9.002188e+02
8.909880e+02
8.865924e+02
8.826364e+02
8.830759e+02
8.865924e+02
8.843946e+02
8.808781e+02
8.720869e+02
8.698891e+02
8.681309e+02
8.734056e+02
8.813177e+02
8.896693e+02
8.967023e+02
8.953836e+02
8.883506e+02
8.786803e+02
8.694496e+02
8.646144e+02
8.676913e+02
8.751638e+02
8.861528e+02
8.923066e+02
9.002188e+02
9.002188e+02
8.975814e+02
8.967023e+02
8.945045e+02
8.962627e+02
8.984605e+02
9.024166e+02
9.015374e+02
8.962627e+02
8.914276e+02
8.914276e+02
8.896693e+02
8.931858e+02
8.931858e+02
9.002188e+02
9.028561e+02
8.980209e+02
8.980209e+02
8.923066e+02
8.848342e+02
8.945045e+02
8.971418e+02
8.984605e+02
8.980209e+02
8.962627e+02
8.870320e+02
8.821968e+02
8.808781e+02
8.813177e+02
8.848342e+02
8.909880e+02
8.927462e+02
8.945045e+02
8.953836e+02
8.936254e+02
8.892297e+02
8.927462e+02
8.892297e+02
8.923066e+02
8.940649e+02
8.949440e+02
8.923066e+02
8.857133e+02
8.804385e+02
8.742847e+02
8.953836e+02
8.830759e+02
9.015374e+02
9.217572e+02
8.685704e+02
8.861528e+02
8.729661e+02
8.602188e+02
8.883506e+02
8.971418e+02
8.712078e+02
8.738452e+02
9.683505e+02
8.496694e+02
8.567023e+02
8.646144e+02
8.729661e+02
9.832956e+02
8.764825e+02
8.896693e+02
8.945045e+02
9.336253e+02
8.870320e+02
8.936254e+02
8.830759e+02
8.887902e+02
8.778012e+02
9.340649e+02
8.637353e+02
9.793395e+02
9.103286e+02
8.993396e+02
9.665923e+02
9.142847e+02
8.439551e+02
8.145046e+02
8.892297e+02
8.382408e+02
8.567023e+02
8.575814e+02
8.887902e+02
8.997792e+02
9.670319e+02
8.334056e+02
9.213176e+02
8.905485e+02
8.725265e+02
8.659331e+02
8.936254e+02
9.274714e+02
8.549441e+02
9.116473e+02
8.940649e+02
8.795594e+02
8.879111e+02
8.747242e+02
9.758231e+02
8.870320e+02
8.821968e+02
8.861528e+02
9.199990e+02
8.369221e+02
9.507681e+02
8.610979e+02
9.885703e+02
9.112078e+02
8.760430e+02
9.349440e+02
8.386804e+02
9.960428e+02
8.536254e+02
9.793395e+02
8.360430e+02
8.681309e+02
8.632957e+02
8.650540e+02
9.208781e+02
9.573616e+02
8.747242e+02
9.243945e+02
7.753837e+02
9.076913e+02
8.105485e+02
8.826364e+02
9.098890e+02
8.536254e+02
8.738452e+02
9.226363e+02
8.395594e+02
9.384604e+02
9.793395e+02
8.197793e+02
9.085704e+02
8.694496e+02
8.927462e+02
9.120869e+02
8.492298e+02
8.703287e+02
8.685704e+02
8.984605e+02
8.848342e+02
9.617571e+02
8.712078e+02
8.861528e+02
9.556033e+02
8.342848e+02
8.773616e+02
8.896693e+02
8.848342e+02
8.799990e+02
9.072517e+02
8.848342e+02
8.509880e+02
8.654935e+02
8.527463e+02
9.252737e+02
8.514276e+02
8.338452e+02
9.283506e+02
9.243945e+02
8.501089e+02
8.672518e+02
8.931858e+02
9.147242e+02
8.852737e+02
9.134055e+02
8.549441e+02
8.852737e+02
8.914276e+02
8.874715e+02
8.901089e+02
9.252737e+02
8.773616e+02
8.698891e+02
8.861528e+02
8.905485e+02
8.918671e+02
8.940649e+02
8.905485e+02
8.835155e+02
8.830759e+02
8.848342e+02
8.852737e+02
8.905485e+02
8.940649e+02
8.945045e+02
8.940649e+02
8.901089e+02
8.865924e+02
8.861528e+02
8.857133e+02
8.909880e+02
8.953836e+02
8.971418e+02
8.975814e+02
8.936254e+02
8.887902e+02
8.896693e+02
8.857133e+02
8.914276e+02
8.896693e+02
9.010979e+02
8.980209e+02
8.962627e+02
8.918671e+02
8.883506e+02
8.865924e+02
8.927462e+02
8.936254e+02
8.945045e+02
8.967023e+02
8.971418e+02
8.931858e+02
8.945045e+02
8.870320e+02
8.826364e+02
8.852737e+02
8.905485e+02
8.949440e+02
8.962627e+02
8.843946e+02
8.821968e+02
8.799990e+02
8.786803e+02
8.835155e+02
8.843946e+02
8.879111e+02
8.861528e+02
8.830759e+02
8.892297e+02
8.769221e+02
8.707682e+02
8.936254e+02
8.835155e+02
8.329661e+02
9.213176e+02
8.597792e+02
8.351639e+02
8.413177e+02
8.553837e+02
8.650540e+02
8.857133e+02
8.949440e+02
9.054935e+02
9.076913e+02
9.090099e+02
9.112078e+02
9.393396e+02
8.509880e+02
1.033845e+03
9.041748e+02
1.020219e+03
9.279110e+02
9.419769e+02
9.925264e+02
8.742847e+02
8.549441e+02
8.131859e+02
8.413177e+02
7.885706e+02
8.571418e+02
9.340649e+02
9.257133e+02
8.175815e+02
8.967023e+02
6.813179e+02
8.228562e+02
8.421968e+02
8.584606e+02
8.887902e+02
7.995595e+02
9.652736e+02
9.358231e+02
8.399990e+02
9.191198e+02
9.406583e+02
9.384604e+02
9.024166e+02
8.883506e+02
9.428561e+02
1.072966e+03
7.248344e+02
1.016263e+03
8.013177e+02
9.542846e+02
8.035156e+02
9.257133e+02
9.323066e+02
8.584606e+02
9.463726e+02
9.406583e+02
7.437354e+02
9.230759e+02
8.918671e+02
9.076913e+02
7.687903e+02
9.076913e+02
8.518672e+02
8.558232e+02
8.224166e+02
8.202189e+02
8.690100e+02
7.156036e+02
8.936254e+02
9.103286e+02
8.958231e+02
9.841747e+02
9.019770e+02
8.496694e+02
7.674717e+02
9.380209e+02
8.887902e+02
8.879111e+02
8.250540e+02
8.786803e+02
8.852737e+02
9.999988e+02
8.597792e+02
9.964824e+02
1.002636e+03
8.742847e+02
8.641748e+02
8.650540e+02
7.472519e+02
9.846143e+02
7.573618e+02
9.389000e+02
8.720869e+02
8.509880e+02
9.437352e+02
7.999991e+02
9.248341e+02
9.050539e+02
8.026365e+02
7.916475e+02
9.613176e+02
9.573616e+02
9.002188e+02
8.545045e+02
7.173618e+02
1.025493e+03
8.835155e+02
6.778014e+02
1.061977e+03
8.426364e+02
9.828560e+02
7.995595e+02
9.468121e+02
8.870320e+02
9.024166e+02
9.824164e+02
8.558232e+02
8.575814e+02
9.169220e+02
8.685704e+02
9.142847e+02
9.041748e+02
9.015374e+02
1.202196e+03
8.558232e+02
8.830759e+02
8.101089e+02
9.063726e+02
9.301088e+02
9.661527e+02
8.799990e+02
8.483507e+02
1.071208e+03
8.830759e+02
9.107682e+02
7.863727e+02
8.720869e+02
9.336253e+02
7.876914e+02
8.918671e+02
8.694496e+02
1.002197e+03
8.571418e+02
9.309879e+02
9.090099e+02
8.778012e+02
9.657132e+02
8.637353e+02
8.681309e+02
1.067251e+03
7.595596e+02
1.018021e+03
8.285705e+02
8.237354e+02
8.443947e+02
9.226363e+02
9.665923e+02
9.564824e+02
8.268123e+02
9.485703e+02
1.040878e+03
8.487902e+02
8.879111e+02
8.158232e+02
9.230759e+02
7.758233e+02
8.391199e+02
9.230759e+02
9.112078e+02
9.032957e+02
8.219771e+02
9.705483e+02
8.083507e+02
9.024166e+02
9.243945e+02
9.380209e+02
9.230759e+02
9.138451e+02
8.536254e+02
9.098890e+02
8.962627e+02
8.742847e+02
8.887902e+02
8.905485e+02
8.685704e+02
9.815374e+02
8.861528e+02
8.756034e+02
8.821968e+02
8.852737e+02
8.936254e+02
8.923066e+02
8.984605e+02
8.874715e+02
8.861528e+02
8.839550e+02
8.843946e+02
8.861528e+02
8.887902e+02
8.923066e+02
8.927462e+02
8.918671e+02
8.883506e+02
8.830759e+02
8.821968e+02
8.817572e+02
8.861528e+02
8.918671e+02
8.927462e+02
8.940649e+02
8.896693e+02
8.843946e+02
8.808781e+02
8.813177e+02
8.843946e+02
8.918671e+02
8.989001e+02
8.975814e+02
8.931858e+02
8.879111e+02
8.848342e+02
8.843946e+02
8.870320e+02
8.901089e+02
8.940649e+02
8.953836e+02
8.949440e+02
8.927462e+02
8.883506e+02
8.883506e+02
8.909880e+02
8.967023e+02
9.006583e+02
9.010979e+02
9.015374e+02
8.967023e+02
8.905485e+02
8.892297e+02
8.870320e+02
8.901089e+02
8.870320e+02
8.993396e+02
8.945045e+02
8.936254e+02
8.883506e+02
8.861528e+02
8.857133e+02
8.892297e+02
8.923066e+02
8.971418e+02
8.975814e+02
8.953836e+02
8.923066e+02
8.865924e+02
8.861528e+02
8.861528e+02
8.905485e+02
8.953836e+02
8.945045e+02
8.962627e+02
8.945045e+02
8.909880e+02
8.857133e+02
8.817572e+02
8.870320e+02
8.813177e+02
8.887902e+02
8.896693e+02
8.883506e+02
8.852737e+02
8.817572e+02
8.821968e+02
8.857133e+02
8.870320e+02
8.914276e+02
8.945045e+02
8.931858e+02
8.905485e+02
8.839550e+02
8.839550e+02
8.848342e+02
8.865924e+02
8.923066e+02
8.909880e+02
8.958231e+02
8.931858e+02
8.892297e+02
8.887902e+02
8.852737e+02
8.865924e+02
8.901089e+02
8.799990e+02
8.918671e+02
8.927462e+02
8.799990e+02
8.795594e+02
8.799990e+02
8.887902e+02
8.936254e+02
8.593397e+02
9.578011e+02
8.663726e+02
8.830759e+02
8.615375e+02
8.492298e+02
1.024614e+03
8.334056e+02
8.782407e+02
9.050539e+02
8.105485e+02
9.490099e+02
8.531859e+02
8.219771e+02
8.281309e+02
9.762626e+02
8.769221e+02
9.595593e+02
8.997792e+02
7.384607e+02
8.817572e+02
8.905485e+02
8.026365e+02
8.879111e+02
9.230759e+02
8.584606e+02
8.971418e+02
8.795594e+02
8.936254e+02
8.668122e+02
8.694496e+02
8.962627e+02
8.817572e+02
8.474716e+02
9.050539e+02
8.918671e+02
9.103286e+02
9.006583e+02
8.452737e+02
8.989001e+02
8.474716e+02
9.059330e+02
8.637353e+02
9.151638e+02
9.419769e+02
9.098890e+02
8.738452e+02
8.747242e+02
8.958231e+02
8.747242e+02
9.090099e+02
9.120869e+02
8.852737e+02
9.037352e+02
8.896693e+02
8.808781e+02
8.808781e+02
8.901089e+02
8.949440e+02
8.861528e+02
8.993396e+02
8.936254e+02
8.993396e+02
8.404386e+02
9.063726e+02
9.094495e+02
9.384604e+02
8.738452e+02
8.615375e+02
8.804385e+02
8.821968e+02
8.808781e+02
8.738452e+02
8.892297e+02
8.892297e+02
8.852737e+02
8.707682e+02
8.887902e+02
8.967023e+02
8.905485e+02
8.769221e+02
8.782407e+02
8.967023e+02
8.958231e+02
8.914276e+02
9.059330e+02
8.830759e+02
8.720869e+02
8.874715e+02
8.720869e+02
8.962627e+02
8.734056e+02
9.107682e+02
8.975814e+02
9.024166e+02
8.650540e+02
8.883506e+02
8.808781e+02
8.857133e+02
8.843946e+02
9.015374e+02
8.927462e+02
8.967023e+02
8.940649e+02
8.773616e+02
9.085704e+02
8.505485e+02
9.213176e+02
9.046144e+02
8.835155e+02
8.971418e+02
9.006583e+02
8.637353e+02
8.734056e+02
8.259331e+02
8.931858e+02
9.639550e+02
8.734056e+02
8.395594e+02
9.081309e+02
8.589001e+02
8.650540e+02
8.896693e+02
8.892297e+02
9.283506e+02
8.479111e+02
9.578011e+02
8.602188e+02
9.054935e+02
8.716473e+02
8.984605e+02
9.309879e+02
8.799990e+02
8.918671e+02
8.879111e+02
8.945045e+02
8.887902e+02
8.874715e+02
8.852737e+02
8.940649e+02
9.010979e+02
8.975814e+02
9.032957e+02
9.024166e+02
9.010979e+02
8.953836e+02
8.909880e+02
8.931858e+02
8.980209e+02
9.041748e+02
9.094495e+02
9.050539e+02
8.927462e+02
8.843946e+02
8.835155e+02
8.861528e+02
8.914276e+02
8.967023e+02
9.072517e+02
9.059330e+02
9.068121e+02
9.024166e+02
8.940649e+02
8.953836e+02
8.958231e+02
8.993396e+02
8.993396e+02
9.041748e+02
9.081309e+02
9.019770e+02
8.967023e+02
8.887902e+02
8.870320e+02
8.927462e+02
8.923066e+02
8.971418e+02
8.980209e+02
8.918671e+02
8.887902e+02
8.865924e+02
8.861528e+02
8.861528e+02
8.901089e+02
8.905485e+02
8.883506e+02
8.896693e+02
8.725265e+02
8.808781e+02
8.852737e+02
8.857133e+02
8.857133e+02
8.826364e+02
8.848342e+02
8.870320e+02
8.870320e+02
8.747242e+02
8.799990e+02
8.615375e+02
8.729661e+02
8.821968e+02
8.879111e+02
8.909880e+02
8.870320e+02
8.848342e+02
8.659331e+02
8.593397e+02
8.993396e+02
9.230759e+02
8.773616e+02
8.764825e+02
8.707682e+02
8.852737e+02
8.791199e+02
8.637353e+02
8.857133e+02
8.725265e+02
9.068121e+02
8.347243e+02
9.578011e+02
8.826364e+02
1.071208e+03
7.745046e+02
8.826364e+02
8.619771e+02
8.756034e+02
8.931858e+02
8.830759e+02
8.865924e+02
8.852737e+02
8.821968e+02
8.808781e+02
8.848342e+02
9.037352e+02
9.120869e+02
8.927462e+02
9.054935e+02
8.936254e+02
8.905485e+02
8.843946e+02
8.879111e+02
8.927462e+02
9.129660e+02
9.204385e+02
8.637353e+02
9.283506e+02
8.764825e+02
8.791199e+02
8.967023e+02
8.843946e+02
8.852737e+02
9.142847e+02
8.553837e+02
8.778012e+02
8.703287e+02
8.716473e+02
9.028561e+02
8.729661e+02
8.865924e+02
8.945045e+02
8.927462e+02
8.967023e+02
8.958231e+02
8.923066e+02
8.874715e+02
8.936254e+02
9.024166e+02
8.751638e+02
9.120869e+02
9.063726e+02
9.002188e+02
8.931858e+02
8.923066e+02
8.857133e+02
8.975814e+02
8.949440e+02
8.962627e+02
8.826364e+02
9.041748e+02
8.962627e+02
8.804385e+02
8.896693e+02
9.432957e+02
8.865924e+02
8.716473e+02
8.285705e+02
9.437352e+02
9.094495e+02
8.413177e+02
9.076913e+02
8.852737e+02
8.804385e+02
8.567023e+02
9.362627e+02
9.125264e+02
8.760430e+02
8.624166e+02
1.007471e+03
8.272518e+02
9.353835e+02
8.861528e+02
8.883506e+02
8.439551e+02
9.349440e+02
8.681309e+02
8.584606e+02
9.160429e+02
8.892297e+02
8.729661e+02
8.509880e+02
9.090099e+02
9.037352e+02
8.597792e+02
9.503286e+02
9.116473e+02
8.193397e+02
9.512077e+02
8.786803e+02
8.518672e+02
1.017142e+03
7.305486e+02
8.865924e+02
8.457133e+02
8.826364e+02
9.459330e+02
8.909880e+02
8.597792e+02
8.641748e+02
8.997792e+02
8.830759e+02
8.896693e+02
8.246144e+02
1.047911e+03
8.558232e+02
8.729661e+02
8.263727e+02
8.914276e+02
9.002188e+02
9.063726e+02
9.151638e+02
8.690100e+02
9.169220e+02
9.191198e+02
8.997792e+02
8.496694e+02
9.085704e+02
1.134504e+03
8.026365e+02
8.668122e+02
8.852737e+02
7.727463e+02
9.006583e+02
9.784604e+02
8.193397e+02
1.026372e+03
8.505485e+02
9.072517e+02
8.263727e+02
9.551638e+02
8.901089e+02
7.727463e+02
8.553837e+02
9.767021e+02
8.092299e+02
1.004394e+03
9.182407e+02
7.934057e+02
8.189001e+02
8.189001e+02
7.384607e+02
8.958231e+02
9.072517e+02
9.226363e+02
8.734056e+02
8.184606e+02
8.901089e+02
8.742847e+02
9.068121e+02
8.584606e+02
9.103286e+02
8.382408e+02
9.564824e+02
8.109881e+02
1.083515e+03
7.608782e+02
1.031208e+03
7.784606e+02
8.821968e+02
8.417573e+02
9.208781e+02
9.076913e+02
8.646144e+02
8.984605e+02
8.382408e+02
9.525264e+02
9.604385e+02
8.712078e+02
9.323066e+02
8.769221e+02
8.659331e+02
9.740648e+02
7.815376e+02
1.033845e+03
8.167024e+02
9.287902e+02
8.865924e+02
8.426364e+02
9.252737e+02
8.734056e+02
8.795594e+02
8.953836e+02
8.892297e+02
8.821968e+02
8.843946e+02
8.839550e+02
8.861528e+02
8.923066e+02
8.958231e+02
9.019770e+02
9.054935e+02
9.019770e+02
8.967023e+02
8.923066e+02
8.887902e+02
8.918671e+02
8.918671e+02
8.945045e+02
8.945045e+02
8.927462e+02
8.892297e+02
8.839550e+02
8.826364e+02
8.848342e+02
8.896693e+02
8.971418e+02
8.984605e+02
9.002188e+02
8.980209e+02
8.949440e+02
8.923066e+02
8.905485e+02
8.953836e+02
8.989001e+02
8.971418e+02
8.945045e+02
8.923066e+02
8.901089e+02
8.883506e+02
8.874715e+02
8.883506e+02
8.901089e+02
8.901089e+02
8.914276e+02
8.887902e+02
8.769221e+02
8.782407e+02
8.791199e+02
8.738452e+02
8.865924e+02
8.857133e+02
8.936254e+02
8.720869e+02
8.918671e+02
8.835155e+02
8.905485e+02
8.870320e+02
8.936254e+02
9.041748e+02
8.923066e+02
9.050539e+02
8.707682e+02
8.874715e+02
8.896693e+02
8.690100e+02
8.901089e+02
8.259331e+02
1.010109e+03
8.470320e+02
8.756034e+02
8.773616e+02
9.151638e+02
8.417573e+02
8.989001e+02
8.865924e+02
9.252737e+02
8.087903e+02
8.892297e+02
8.747242e+02
8.914276e+02
8.628561e+02
8.989001e+02
8.742847e+02
8.962627e+02
8.901089e+02
8.953836e+02
9.221968e+02
8.971418e+02
8.575814e+02
8.949440e+02
9.142847e+02
8.457133e+02
8.936254e+02
8.571418e+02
8.756034e+02
9.885703e+02
8.290100e+02
9.204385e+02
8.936254e+02
9.191198e+02
8.953836e+02
9.059330e+02
9.261528e+02
9.529659e+02
8.980209e+02
8.505485e+02
8.892297e+02
8.703287e+02
9.142847e+02
8.949440e+02
9.028561e+02
9.380209e+02
8.725265e+02
8.707682e+02
9.630758e+02
8.659331e+02
8.804385e+02
9.068121e+02
9.076913e+02
9.010979e+02
9.054935e+02
9.063726e+02
8.641748e+02
8.927462e+02
9.019770e+02
9.076913e+02
9.059330e+02
9.010979e+02
8.975814e+02
8.843946e+02
8.826364e+02
8.852737e+02
8.826364e+02
8.707682e+02
8.923066e+02
8.940649e+02
8.901089e+02
8.896693e+02
8.865924e+02
8.892297e+02
8.914276e+02
8.958231e+02
9.010979e+02
9.015374e+02
9.010979e+02
8.940649e+02
8.896693e+02
8.905485e+02
8.962627e+02
9.041748e+02
8.931858e+02
9.050539e+02
8.931858e+02
8.927462e+02
8.835155e+02
8.813177e+02
8.817572e+02
8.821968e+02
8.839550e+02
8.940649e+02
8.883506e+02
8.892297e+02
9.037352e+02
8.505485e+02
8.769221e+02
8.756034e+02
8.901089e+02
8.786803e+02
8.729661e+02
8.936254e+02
8.663726e+02
8.729661e+02
8.980209e+02
8.615375e+02
8.857133e+02
8.949440e+02
8.931858e+02
8.958231e+02
8.681309e+02
9.046144e+02
8.672518e+02
8.931858e+02
9.367022e+02
8.945045e+02
8.712078e+02
8.773616e+02
9.024166e+02
8.698891e+02
9.507681e+02
8.742847e+02
8.764825e+02
9.138451e+02
8.896693e+02
8.852737e+02
8.892297e+02
8.989001e+02
8.799990e+02
8.826364e+02
9.019770e+02
8.654935e+02
9.081309e+02
8.830759e+02
8.883506e+02
9.072517e+02
8.870320e+02
8.817572e+02
8.874715e+02
8.294496e+02
9.494495e+02
8.962627e+02
8.795594e+02
9.252737e+02
8.654935e+02
8.923066e+02
8.650540e+02
8.852737e+02
8.465924e+02
9.538451e+02
8.320870e+02
1.005713e+03
8.615375e+02
8.778012e+02
8.540649e+02
9.578011e+02
8.940649e+02
8.676913e+02
8.826364e+02
8.835155e+02
8.518672e+02
9.424165e+02
9.151638e+02
8.632957e+02
9.314275e+02
8.523067e+02
9.349440e+02
8.395594e+02
8.887902e+02
9.771417e+02
8.026365e+02
8.909880e+02
9.024166e+02
8.518672e+02
9.512077e+02
8.624166e+02
8.219771e+02
9.498890e+02
9.178011e+02
8.026365e+02
8.984605e+02
8.316474e+02
7.846145e+02
1.004834e+03
8.901089e+02
9.186803e+02
8.246144e+02
8.883506e+02
8.145046e+02
1.159999e+03
8.553837e+02
8.857133e+02
9.230759e+02
9.340649e+02
8.030760e+02
9.261528e+02
8.202189e+02
8.848342e+02
9.072517e+02
8.962627e+02
8.918671e+02
9.147242e+02
8.575814e+02
8.615375e+02
9.002188e+02
9.107682e+02
8.672518e+02
8.848342e+02
8.892297e+02
8.901089e+02
8.896693e+02
8.830759e+02
8.698891e+02
9.098890e+02
8.668122e+02
8.707682e+02
9.032957e+02
8.909880e+02
8.883506e+02
8.870320e+02
8.843946e+02
8.821968e+02
8.843946e+02
8.865924e+02
8.905485e+02
8.931858e+02
8.931858e+02
8.909880e+02
8.857133e+02
8.861528e+02
8.865924e+02
8.918671e+02
8.971418e+02
8.909880e+02
8.971418e+02
8.914276e+02
8.843946e+02
8.786803e+02
8.756034e+02
8.804385e+02
8.830759e+02
8.848342e+02
8.861528e+02
8.839550e+02
8.782407e+02
8.690100e+02
8.716473e+02
8.804385e+02
8.901089e+02
8.927462e+02
8.887902e+02
8.883506e+02
8.905485e+02
8.901089e+02
8.931858e+02
8.940649e+02
8.984605e+02
9.010979e+02
9.002188e+02
9.002188e+02
8.945045e+02
8.931858e+02
8.892297e+02
8.896693e+02
9.485703e+02
9.248341e+02
9.072517e+02
9.054935e+02
8.729661e+02
8.857133e+02
8.945045e+02
8.830759e+02
8.215375e+02
1.055823e+03
8.483507e+02
8.540649e+02
9.652736e+02
8.843946e+02
8.984605e+02
8.993396e+02
9.068121e+02
8.861528e+02
9.217572e+02
8.712078e+02
9.318671e+02
8.342848e+02
8.509880e+02
9.085704e+02
8.663726e+02
9.591198e+02
8.057134e+02
9.305484e+02
8.123068e+02
1.035603e+03
8.202189e+02
8.760430e+02
8.017573e+02
9.503286e+02
8.496694e+02
9.068121e+02
7.714277e+02
9.815374e+02
8.575814e+02
8.558232e+02
8.553837e+02
5.692301e+02
1.314724e+03
7.613178e+02
8.219771e+02
8.804385e+02
9.032957e+02
8.496694e+02
8.980209e+02
8.945045e+02
8.993396e+02
8.918671e+02
9.406583e+02
8.254935e+02
9.393396e+02
7.995595e+02
9.024166e+02
9.226363e+02
8.096694e+02
1.028570e+03
8.417573e+02
9.261528e+02
8.307683e+02
7.982408e+02
9.745044e+02
8.369221e+02
9.459330e+02
8.202189e+02
8.989001e+02
9.032957e+02
8.835155e+02
8.448342e+02
8.817572e+02
8.250540e+02
9.679110e+02
8.874715e+02
8.602188e+02
9.362627e+02
9.230759e+02
9.881307e+02
8.553837e+02
9.015374e+02
8.751638e+02
8.334056e+02
9.125264e+02
8.738452e+02
8.562628e+02
1.044394e+03
7.999991e+02
9.230759e+02
8.725265e+02
8.118672e+02
9.551638e+02
8.435155e+02
1.059339e+03
1.068570e+03
8.839550e+02
9.512077e+02
6.975816e+02
1.088790e+03
8.975814e+02
8.149441e+02
9.824164e+02
8.747242e+02
9.301088e+02
9.701088e+02
8.989001e+02
9.252737e+02
8.413177e+02
9.283506e+02
9.556033e+02
7.604387e+02
8.773616e+02
8.290100e+02
7.520870e+02
7.846145e+02
9.261528e+02
7.265926e+02
9.199990e+02
7.674717e+02
8.813177e+02
8.435155e+02
9.797791e+02
7.701090e+02
1.210109e+03
9.164825e+02
8.268123e+02
9.160429e+02
8.839550e+02
8.518672e+02
9.402187e+02
8.646144e+02
8.672518e+02
8.905485e+02
8.712078e+02
9.301088e+02
8.808781e+02
8.404386e+02
9.384604e+02
9.239550e+02
8.175815e+02
9.806582e+02
8.457133e+02
9.169220e+02
9.292297e+02
9.560428e+02
8.668122e+02
8.430759e+02
9.002188e+02
9.063726e+02
8.619771e+02
8.760430e+02
7.991200e+02
1.239559e+03
9.156033e+02
7.806584e+02
1.071647e+03
8.342848e+02
8.162628e+02
8.153837e+02
6.351641e+02
9.837351e+02
7.753837e+02
8.804385e+02
9.063726e+02
8.857133e+02
8.523067e+02
1.006153e+03
8.901089e+02
9.032957e+02
9.221968e+02
8.654935e+02
8.496694e+02
8.637353e+02
8.685704e+02
8.646144e+02
9.142847e+02
8.905485e+02
8.589001e+02
9.731857e+02
9.428561e+02
8.830759e+02
8.808781e+02
8.962627e+02
8.927462e+02
8.756034e+02
8.641748e+02
9.090099e+02
8.918671e+02
8.931858e+02
8.870320e+02
8.927462e+02
8.980209e+02
9.024166e+02
9.085704e+02
8.984605e+02
8.984605e+02
8.905485e+02
8.874715e+02
8.821968e+02
8.839550e+02
8.887902e+02
8.914276e+02
8.914276e+02
8.865924e+02
8.835155e+02
8.786803e+02
8.760430e+02
8.782407e+02
8.821968e+02
8.857133e+02
8.901089e+02
8.870320e+02
8.804385e+02
8.756034e+02
8.756034e+02
8.764825e+02
8.786803e+02
8.870320e+02
8.883506e+02
8.945045e+02
8.870320e+02
8.901089e+02
8.843946e+02
8.786803e+02
8.769221e+02
8.879111e+02
8.927462e+02
8.980209e+02
8.971418e+02
9.002188e+02
8.923066e+02
8.931858e+02
8.967023e+02
9.028561e+02
9.063726e+02
9.085704e+02
9.059330e+02
9.019770e+02
8.927462e+02
8.936254e+02
8.949440e+02
8.971418e+02
9.024166e+02
8.989001e+02
9.081309e+02
9.059330e+02
8.931858e+02
8.958231e+02
8.940649e+02
8.980209e+02
8.887902e+02
8.975814e+02
8.879111e+02
8.861528e+02
8.821968e+02
8.773616e+02
8.685704e+02
8.830759e+02
8.791199e+02
8.821968e+02
8.874715e+02
8.909880e+02
8.874715e+02
8.778012e+02
8.769221e+02
8.760430e+02
8.848342e+02
8.865924e+02
8.835155e+02
8.843946e+02
8.962627e+02
8.870320e+02
8.764825e+02
8.892297e+02
8.909880e+02
8.896693e+02
9.032957e+02
9.032957e+02
8.980209e+02
8.923066e+02
8.861528e+02
8.892297e+02
8.821968e+02
8.887902e+02
9.002188e+02
8.918671e+02
9.068121e+02
8.734056e+02
8.865924e+02
8.518672e+02
8.760430e+02
9.107682e+02
8.312078e+02
9.169220e+02
9.098890e+02
8.879111e+02
8.760430e+02
9.221968e+02
8.865924e+02
8.799990e+02
9.041748e+02
8.975814e+02
9.147242e+02
8.896693e+02
9.178011e+02
8.610979e+02
8.993396e+02
9.010979e+02
8.742847e+02
8.861528e+02
8.984605e+02
8.769221e+02
8.619771e+02
8.514276e+02
8.835155e+02
9.287902e+02
8.804385e+02
8.865924e+02
8.892297e+02
8.989001e+02
9.142847e+02
9.006583e+02
8.874715e+02
8.729661e+02
9.081309e+02
8.980209e+02
8.769221e+02
9.274714e+02
8.799990e+02
8.712078e+02
8.830759e+02
8.624166e+02
8.369221e+02
8.945045e+02
8.641748e+02
9.010979e+02
8.624166e+02
9.085704e+02
8.690100e+02
8.857133e+02
8.553837e+02
9.318671e+02
8.984605e+02
8.839550e+02
8.650540e+02
8.843946e+02
8.817572e+02
8.597792e+02
9.134055e+02
8.531859e+02
8.694496e+02
9.608781e+02
8.848342e+02
8.993396e+02
8.584606e+02
9.046144e+02
9.230759e+02
8.628561e+02
9.112078e+02
8.896693e+02
9.156033e+02
9.147242e+02
9.397792e+02
8.145046e+02
9.226363e+02
9.107682e+02
9.006583e+02
9.151638e+02
9.046144e+02
8.865924e+02
9.463726e+02
9.129660e+02
8.241749e+02
9.982406e+02
8.804385e+02
8.923066e+02
8.804385e+02
9.243945e+02
8.830759e+02
8.773616e+02
9.441747e+02
8.764825e+02
8.615375e+02
9.120869e+02
9.160429e+02
8.927462e+02
8.716473e+02
9.265923e+02
9.292297e+02
8.610979e+02
9.032957e+02
8.975814e+02
9.481308e+02
1.014944e+03
8.162628e+02
9.032957e+02
8.378013e+02
9.257133e+02
8.558232e+02
8.501089e+02
9.397792e+02
8.905485e+02
9.046144e+02
8.945045e+02
8.619771e+02
8.874715e+02
7.661530e+02
9.784604e+02
8.329661e+02
9.199990e+02
8.962627e+02
8.514276e+02
9.564824e+02
7.837354e+02
8.312078e+02
8.975814e+02
8.804385e+02
9.006583e+02
8.514276e+02
8.997792e+02
9.090099e+02
9.283506e+02
8.241749e+02
8.962627e+02
8.936254e+02
8.799990e+02
8.870320e+02
8.698891e+02
8.927462e+02
8.808781e+02
8.738452e+02
8.492298e+02
8.883506e+02
8.215375e+02
9.898890e+02
8.153837e+02
8.778012e+02
8.606583e+02
8.945045e+02
8.378013e+02
8.769221e+02
8.325265e+02
9.305484e+02
9.041748e+02
8.857133e+02
8.865924e+02
8.448342e+02
9.371418e+02
8.852737e+02
8.606583e+02
9.569220e+02
8.729661e+02
9.125264e+02
8.628561e+02
9.164825e+02
8.861528e+02
9.287902e+02
7.925266e+02
1.048790e+03
8.105485e+02
9.213176e+02
8.562628e+02
8.725265e+02
8.725265e+02
8.813177e+02
8.826364e+02
8.940649e+02
9.292297e+02
9.002188e+02
8.914276e+02
8.654935e+02
8.654935e+02
8.795594e+02
9.125264e+02
8.786803e+02
9.032957e+02
8.874715e+02
8.914276e+02
8.457133e+02
8.883506e+02
8.316474e+02
9.314275e+02
8.747242e+02
7.850541e+02
1.096262e+03
8.632957e+02
8.637353e+02
8.804385e+02
8.804385e+02
8.896693e+02
8.945045e+02
8.465924e+02
1.003955e+03
8.778012e+02
8.808781e+02
8.663726e+02
9.072517e+02
9.059330e+02
8.940649e+02
8.795594e+02
9.142847e+02
8.448342e+02
9.358231e+02
8.883506e+02
9.028561e+02
8.589001e+02
8.971418e+02
9.195594e+02
8.567023e+02
8.883506e+02
8.962627e+02
8.901089e+02
8.949440e+02
8.826364e+02
8.782407e+02
8.896693e+02
8.650540e+02
8.874715e+02
8.901089e+02
8.914276e+02
8.865924e+02
8.883506e+02
8.857133e+02
8.870320e+02
8.821968e+02
8.967023e+02
8.980209e+02
9.006583e+02
9.019770e+02
8.830759e+02
8.887902e+02
8.949440e+02
8.505485e+02
8.848342e+02
9.015374e+02
9.059330e+02
9.076913e+02
8.751638e+02
8.676913e+02
8.738452e+02
8.632957e+02
8.751638e+02
8.817572e+02
8.821968e+02
8.830759e+02
8.804385e+02
8.791199e+02
8.799990e+02
8.782407e+02
8.848342e+02
8.909880e+02
8.975814e+02
8.971418e+02
8.931858e+02
8.909880e+02
8.870320e+02
8.865924e+02
8.887902e+02
8.931858e+02
8.975814e+02
9.015374e+02
8.980209e+02
8.945045e+02
8.879111e+02
8.865924e+02
8.874715e+02
8.905485e+02
8.931858e+02
8.936254e+02
8.962627e+02
8.909880e+02
8.835155e+02
8.791199e+02
8.905485e+02
8.879111e+02
8.865924e+02
8.861528e+02
8.993396e+02
8.764825e+02
9.120869e+02
8.874715e+02
8.896693e+02
8.553837e+02
8.940649e+02
9.226363e+02
8.747242e+02
9.015374e+02
8.879111e+02
8.958231e+02
8.413177e+02
9.450538e+02
8.518672e+02
9.331857e+02
9.191198e+02
8.760430e+02
8.580210e+02
9.151638e+02
8.918671e+02
8.703287e+02
8.751638e+02
8.808781e+02
8.830759e+02
8.984605e+02
8.839550e+02
8.892297e+02
8.813177e+02
8.791199e+02
8.826364e+02
8.852737e+02
8.918671e+02
8.804385e+02
8.738452e+02
8.971418e+02
9.054935e+02
8.861528e+02
9.037352e+02
8.325265e+02
9.142847e+02
9.248341e+02
8.619771e+02
9.068121e+02
8.712078e+02
9.340649e+02
8.523067e+02
8.632957e+02
8.896693e+02
1.010988e+03
9.296693e+02
8.329661e+02
8.931858e+02
8.843946e+02
8.804385e+02
9.028561e+02
8.465924e+02
8.795594e+02
9.142847e+02
8.615375e+02
8.918671e+02
8.470320e+02
9.024166e+02
8.760430e+02
8.545045e+02
8.734056e+02
9.178011e+02
8.316474e+02
8.567023e+02
8.637353e+02
8.756034e+02
8.712078e+02
8.791199e+02
8.747242e+02
8.857133e+02
9.002188e+02
9.116473e+02
9.151638e+02
9.406583e+02
9.564824e+02
9.191198e+02
9.380209e+02
9.301088e+02
8.734056e+02
9.112078e+02
9.072517e+02
9.191198e+02
9.221968e+02
9.771417e+02
9.358231e+02
9.349440e+02
9.248341e+02
9.265923e+02
8.791199e+02
9.683505e+02
9.221968e+02
8.140650e+02
8.035156e+02
8.558232e+02
8.461529e+02
9.283506e+02
8.479111e+02
9.784604e+02
8.496694e+02
8.830759e+02
8.826364e+02
8.975814e+02
8.602188e+02
9.195594e+02
8.729661e+02
9.054935e+02
8.879111e+02
8.637353e+02
8.909880e+02
9.226363e+02
8.021969e+02
8.756034e+02
8.808781e+02
9.028561e+02
8.949440e+02
8.347243e+02
8.589001e+02
8.404386e+02
8.707682e+02
9.068121e+02
8.896693e+02
9.046144e+02
9.340649e+02
8.953836e+02
9.072517e+02
9.125264e+02
9.076913e+02
9.169220e+02
8.997792e+02
8.980209e+02
9.323066e+02
8.474716e+02
8.712078e+02
8.821968e+02
9.037352e+02
9.032957e+02
9.063726e+02
9.112078e+02
9.186803e+02
9.134055e+02
9.160429e+02
8.883506e+02
8.558232e+02
8.698891e+02
9.296693e+02
8.641748e+02
8.707682e+02
8.742847e+02
8.703287e+02
8.883506e+02
8.720869e+02
8.936254e+02
8.778012e+02
8.817572e+02
8.641748e+02
8.804385e+02
8.562628e+02
8.571418e+02
8.584606e+02
8.663726e+02
8.760430e+02
8.879111e+02
8.953836e+02
8.984605e+02
9.015374e+02
9.032957e+02
9.050539e+02
9.090099e+02
9.103286e+02
9.125264e+02
9.103286e+02
9.032957e+02
8.975814e+02
8.918671e+02
8.887902e+02
8.909880e+02
8.953836e+02
9.019770e+02
9.085704e+02
9.063726e+02
9.081309e+02
9.037352e+02
9.054935e+02
9.063726e+02
9.103286e+02
9.160429e+02
9.160429e+02
9.178011e+02
9.147242e+02
9.257133e+02
8.672518e+02
8.562628e+02
8.729661e+02
8.773616e+02
8.909880e+02
8.931858e+02
8.813177e+02
8.940649e+02
8.892297e+02
8.786803e+02
9.002188e+02
8.962627e+02
8.808781e+02
8.953836e+02
8.870320e+02
8.791199e+02
8.681309e+02
8.619771e+02
8.892297e+02
8.421968e+02
9.485703e+02
8.518672e+02
8.461529e+02
9.186803e+02
9.441747e+02
8.224166e+02
8.975814e+02
8.804385e+02
8.769221e+02
8.804385e+02
8.712078e+02
9.191198e+02
8.632957e+02
9.103286e+02
8.558232e+02
9.538451e+02
8.663726e+02
8.421968e+02
8.312078e+02
9.186803e+02
6.523069e+02
1.091867e+03
8.145046e+02
8.584606e+02
9.718670e+02
8.760430e+02
9.542846e+02
9.221968e+02
9.129660e+02
9.015374e+02
9.032957e+02
8.615375e+02
8.457133e+02
8.738452e+02
9.402187e+02
9.402187e+02
8.276913e+02
9.230759e+02
8.593397e+02
8.659331e+02
8.553837e+02
8.958231e+02
8.057134e+02
8.887902e+02
8.958231e+02
8.250540e+02
8.035156e+02
9.169220e+02
8.417573e+02
8.975814e+02
8.369221e+02
9.705483e+02
9.125264e+02
8.707682e+02
8.874715e+02
8.782407e+02
9.652736e+02
9.204385e+02
9.314275e+02
8.540649e+02
9.679110e+02
9.015374e+02
8.883506e+02
8.742847e+02
8.958231e+02
8.386804e+02
1.018460e+03
8.997792e+02
9.226363e+02
9.098890e+02
9.164825e+02
9.243945e+02
8.940649e+02
8.940649e+02
8.808781e+02
9.054935e+02
9.028561e+02
9.032957e+02
8.997792e+02
8.905485e+02
8.843946e+02
8.641748e+02
8.756034e+02
8.905485e+02
8.751638e+02
8.725265e+02
8.918671e+02
9.085704e+02
8.909880e+02
8.729661e+02
8.795594e+02
8.760430e+02
8.773616e+02
8.747242e+02
8.720869e+02
8.734056e+02
8.729661e+02
8.773616e+02
8.778012e+02
9.059330e+02
9.015374e+02
9.098890e+02
9.129660e+02
9.125264e+02
9.024166e+02
8.958231e+02
8.962627e+02
9.006583e+02
9.028561e+02
9.094495e+02
9.081309e+02
9.059330e+02
8.958231e+02
8.901089e+02
8.874715e+02
8.887902e+02
8.953836e+02
8.984605e+02
9.010979e+02
9.059330e+02
8.870320e+02
8.799990e+02
8.843946e+02
8.865924e+02
8.857133e+02
8.887902e+02
8.909880e+02
8.931858e+02
8.843946e+02
8.786803e+02
8.738452e+02
8.742847e+02
8.707682e+02
8.830759e+02
8.760430e+02
8.892297e+02
8.848342e+02
8.808781e+02
8.712078e+02
8.804385e+02
8.791199e+02
8.865924e+02
8.958231e+02
9.006583e+02
8.967023e+02
8.923066e+02
8.852737e+02
8.892297e+02
8.839550e+02
8.808781e+02
9.068121e+02
9.006583e+02
8.901089e+02
8.918671e+02
8.918671e+02
8.896693e+02
8.927462e+02
8.936254e+02
8.865924e+02
9.019770e+02
9.081309e+02
8.997792e+02
8.887902e+02
8.830759e+02
8.769221e+02
8.650540e+02
8.760430e+02
8.734056e+02
8.773616e+02
8.734056e+02
8.694496e+02
8.720869e+02
8.734056e+02
8.703287e+02
8.909880e+02
8.905485e+02
8.958231e+02
8.958231e+02
8.967023e+02
8.962627e+02
8.918671e+02
8.918671e+02
8.949440e+02
8.993396e+02
9.059330e+02
9.068121e+02
9.032957e+02
8.975814e+02
8.923066e+02
8.896693e+02
8.918671e+02
8.958231e+02
9.024166e+02
9.068121e+02
9.098890e+02
9.063726e+02
9.037352e+02
9.015374e+02
9.032957e+02
8.931858e+02
8.791199e+02
8.826364e+02
8.830759e+02
8.835155e+02
8.813177e+02
8.786803e+02
8.786803e+02
8.839550e+02
8.879111e+02
8.927462e+02
8.953836e+02
8.923066e+02
8.896693e+02
8.821968e+02
8.830759e+02
8.839550e+02
8.883506e+02
8.909880e+02
8.953836e+02
8.927462e+02
8.879111e+02
8.852737e+02
8.848342e+02
8.826364e+02
8.914276e+02
8.927462e+02
8.949440e+02
8.945045e+02
8.892297e+02
8.852737e+02
8.808781e+02
8.799990e+02
8.817572e+02
8.857133e+02
8.918671e+02
8.936254e+02
8.936254e+02
8.887902e+02
8.835155e+02
8.826364e+02
8.826364e+02
8.865924e+02
8.918671e+02
8.923066e+02
8.927462e+02
8.887902e+02
8.804385e+02
8.852737e+02
8.821968e+02
8.887902e+02
8.927462e+02
8.896693e+02
8.953836e+02
8.901089e+02
8.861528e+02
8.821968e+02
8.813177e+02
8.857133e+02
8.896693e+02
8.923066e+02
8.953836e+02
8.918671e+02
8.879111e+02
8.830759e+02
8.813177e+02
8.799990e+02
8.848342e+02
8.892297e+02
8.927462e+02
8.923066e+02
8.883506e+02
8.887902e+02
8.830759e+02
8.835155e+02
8.909880e+02
8.901089e+02
8.967023e+02
8.958231e+02
8.927462e+02
8.892297e+02
8.852737e+02
8.843946e+02
8.887902e+02
8.883506e+02
8.962627e+02
8.949440e+02
8.962627e+02
8.887902e+02
8.857133e+02
8.848342e+02
8.861528e+02
8.901089e+02
8.949440e+02
8.962627e+02
8.945045e+02
8.931858e+02
8.879111e+02
8.857133e+02
8.861528e+02
8.883506e+02
8.927462e+02
8.953836e+02
8.958231e+02
8.945045e+02
8.905485e+02
8.861528e+02
8.848342e+02
8.883506e+02
8.914276e+02
8.940649e+02
8.989001e+02
8.940649e+02
8.901089e+02
8.857133e+02
8.826364e+02
8.852737e+02
8.909880e+02
8.931858e+02
8.958231e+02
8.945045e+02
8.918671e+02
8.857133e+02
8.848342e+02
8.852737e+02
8.879111e+02
8.923066e+02
8.949440e+02
8.949440e+02
8.883506e+02
8.923066e+02
8.843946e+02
8.830759e+02
8.874715e+02
8.914276e+02
8.936254e+02
8.962627e+02
8.940649e+02
8.879111e+02
8.861528e+02
8.817572e+02
8.839550e+02
9.010979e+02
8.848342e+02
8.975814e+02
8.936254e+02
8.931858e+02
8.830759e+02
8.848342e+02
8.817572e+02
8.909880e+02
8.918671e+02
8.962627e+02
8.989001e+02
8.914276e+02
8.887902e+02
8.879111e+02
8.839550e+02
8.883506e+02
8.887902e+02
8.901089e+02
8.953836e+02
8.901089e+02
8.949440e+02
8.826364e+02
8.804385e+02
8.628561e+02
8.650540e+02
9.652736e+02
8.668122e+02
9.037352e+02
8.843946e+02
8.615375e+02
8.703287e+02
9.406583e+02
8.918671e+02
8.861528e+02
8.923066e+02
8.953836e+02
8.769221e+02
9.309879e+02
9.107682e+02
8.602188e+02
8.659331e+02
9.076913e+02
8.646144e+02
9.358231e+02
8.967023e+02
8.641748e+02
8.997792e+02
8.997792e+02
8.747242e+02
8.567023e+02
9.046144e+02
9.063726e+02
8.725265e+02
9.367022e+02
8.593397e+02
8.720869e+02
9.103286e+02
7.929661e+02
1.001318e+03
8.738452e+02
9.151638e+02
8.923066e+02
8.624166e+02
8.738452e+02
8.479111e+02
9.287902e+02
8.870320e+02
7.701090e+02
9.956033e+02
9.164825e+02
8.615375e+02
9.002188e+02
8.676913e+02
8.887902e+02
8.751638e+02
8.962627e+02
9.384604e+02
8.580210e+02
8.865924e+02
9.173616e+02
8.540649e+02
9.643945e+02
8.474716e+02
8.567023e+02
9.006583e+02
8.773616e+02
8.940649e+02
8.962627e+02
8.593397e+02
8.795594e+02
9.072517e+02
8.918671e+02
8.839550e+02
8.742847e+02
8.835155e+02
9.195594e+02
8.347243e+02
8.650540e+02
9.221968e+02
8.698891e+02
8.487902e+02
8.364825e+02
9.934055e+02
8.808781e+02
8.531859e+02
7.437354e+02
1.059339e+03
8.189001e+02
8.685704e+02
9.213176e+02
8.408782e+02
9.824164e+02
8.307683e+02
7.723068e+02
8.830759e+02
9.670319e+02
8.492298e+02
8.483507e+02
8.641748e+02
9.094495e+02
8.373617e+02
8.734056e+02
8.509880e+02
8.813177e+02
8.417573e+02
8.742847e+02
1.156922e+03
9.248341e+02
8.140650e+02
8.712078e+02
1.036482e+03
7.850541e+02
8.562628e+02
8.817572e+02
9.903286e+02
1.039559e+03
7.718672e+02
8.347243e+02
9.318671e+02
8.549441e+02
8.861528e+02
8.927462e+02
9.032957e+02
9.345044e+02
1.080878e+03
8.105485e+02
8.980209e+02
8.492298e+02
8.927462e+02
8.206584e+02
7.907683e+02
1.288350e+03
9.898890e+02
7.942848e+02
7.323069e+02
1.195163e+03
8.821968e+02
8.241749e+02
1.189010e+03
8.149441e+02
8.145046e+02
8.931858e+02
8.492298e+02
9.353835e+02
8.421968e+02
8.558232e+02
9.679110e+02
8.769221e+02
6.923069e+02
9.591198e+02
8.443947e+02
9.059330e+02
9.296693e+02
1.092746e+03
8.729661e+02
8.690100e+02
8.597792e+02
9.991198e+02
8.901089e+02
8.421968e+02
6.637355e+02
8.791199e+02
8.690100e+02
9.749440e+02
8.518672e+02
8.716473e+02
9.991198e+02
7.890101e+02
8.892297e+02
8.408782e+02
1.085713e+03
6.540652e+02
1.001318e+03
8.716473e+02
9.608781e+02
9.942845e+02
7.120871e+02
7.978013e+02
9.415374e+02
8.624166e+02
7.903287e+02
8.382408e+02
8.808781e+02
8.751638e+02
8.558232e+02
8.382408e+02
9.481308e+02
8.646144e+02
8.378013e+02
8.909880e+02
8.474716e+02
9.450538e+02
6.971421e+02
9.134055e+02
8.320870e+02
8.470320e+02
8.909880e+02
8.698891e+02
8.958231e+02
8.479111e+02
9.727462e+02
9.081309e+02
8.791199e+02
8.571418e+02
8.883506e+02
8.553837e+02
7.920870e+02
9.868121e+02
8.158232e+02
8.237354e+02
8.848342e+02
9.323066e+02
8.232958e+02
7.863727e+02
9.599989e+02
9.248341e+02
8.575814e+02
9.819769e+02
7.885706e+02
9.454934e+02
9.336253e+02
7.410980e+02
8.962627e+02
9.674714e+02
7.969222e+02
8.364825e+02
8.975814e+02
9.006583e+02
8.681309e+02
7.762628e+02
9.230759e+02
9.793395e+02
7.191201e+02
7.512079e+02
9.221968e+02
7.784606e+02
9.472516e+02
9.120869e+02
9.235154e+02
8.395594e+02
8.874715e+02
8.870320e+02
9.006583e+02
9.068121e+02
9.362627e+02
8.931858e+02
9.138451e+02
9.037352e+02
9.151638e+02
8.707682e+02
6.026367e+02
1.062856e+03
9.573616e+02
8.294496e+02
8.650540e+02
9.410978e+02
8.949440e+02
8.545045e+02
8.470320e+02
8.479111e+02
9.705483e+02
9.015374e+02
8.263727e+02
8.074716e+02
9.709879e+02
8.641748e+02
8.975814e+02
8.901089e+02
8.356035e+02
8.892297e+02
8.931858e+02
8.918671e+02
9.002188e+02
9.393396e+02
8.694496e+02
1.056702e+03
1.396042e+03
7.538453e+02
8.202189e+02
9.257133e+02
8.923066e+02
9.723066e+02
8.593397e+02
9.050539e+02
8.852737e+02
9.068121e+02
9.160429e+02
8.518672e+02
9.226363e+02
8.901089e+02
8.962627e+02
8.945045e+02
9.059330e+02
8.580210e+02
8.870320e+02
8.870320e+02
8.892297e+02
8.927462e+02
8.927462e+02
8.839550e+02
8.909880e+02
8.852737e+02
8.843946e+02
8.874715e+02
8.918671e+02
8.962627e+02
8.953836e+02
8.971418e+02
8.923066e+02
8.861528e+02
8.826364e+02
8.870320e+02
8.883506e+02
8.927462e+02
8.958231e+02
8.958231e+02
8.923066e+02
8.865924e+02
8.821968e+02
8.813177e+02
8.830759e+02
8.861528e+02
8.905485e+02
8.909880e+02
8.892297e+02
8.852737e+02
8.817572e+02
8.826364e+02
8.843946e+02
8.931858e+02
8.958231e+02
8.940649e+02
8.905485e+02
8.839550e+02
8.747242e+02
8.782407e+02
8.742847e+02
8.764825e+02
8.843946e+02
8.892297e+02
8.945045e+02
8.905485e+02
8.883506e+02
8.870320e+02
8.712078e+02
8.967023e+02
8.901089e+02
8.931858e+02
8.971418e+02
8.940649e+02
8.852737e+02
8.865924e+02
8.826364e+02
8.905485e+02
8.909880e+02
8.958231e+02
8.953836e+02
8.997792e+02
8.940649e+02
8.874715e+02
8.843946e+02
8.835155e+02
8.843946e+02
8.879111e+02
8.914276e+02
8.931858e+02
8.927462e+02
8.901089e+02
8.901089e+02
8.791199e+02
8.870320e+02
8.914276e+02
8.936254e+02
8.940649e+02
8.958231e+02
8.901089e+02
8.830759e+02
8.865924e+02
8.883506e+02
8.945045e+02
8.945045e+02
8.975814e+02
8.967023e+02
8.909880e+02
8.857133e+02
8.835155e+02
8.887902e+02
8.857133e+02
8.927462e+02
8.953836e+02
8.975814e+02
8.936254e+02
8.905485e+02
8.764825e+02
8.799990e+02
8.909880e+02
9.002188e+02
8.879111e+02
8.931858e+02
8.989001e+02
8.993396e+02
8.949440e+02
8.953836e+02
9.002188e+02
9.010979e+02
9.046144e+02
9.063726e+02
9.063726e+02
9.010979e+02
8.962627e+02
8.909880e+02
8.874715e+02
8.931858e+02
8.949440e+02
8.984605e+02
9.010979e+02
8.980209e+02
8.975814e+02
8.949440e+02
8.949440e+02
8.967023e+02
9.010979e+02
8.993396e+02
9.037352e+02
9.072517e+02
9.098890e+02
9.085704e+02
9.098890e+02
9.120869e+02
9.191198e+02
9.076913e+02
8.619771e+02
8.606583e+02
8.628561e+02
8.641748e+02
8.659331e+02
8.698891e+02
8.734056e+02
8.848342e+02
8.887902e+02
8.909880e+02
8.883506e+02
8.865924e+02
8.808781e+02
8.795594e+02
8.830759e+02
8.852737e+02
8.892297e+02
8.909880e+02
8.879111e+02
8.861528e+02
8.817572e+02
8.782407e+02
8.835155e+02
8.865924e+02
8.914276e+02
8.931858e+02
8.936254e+02
8.879111e+02
8.826364e+02
8.839550e+02
8.813177e+02
8.861528e+02
8.905485e+02
8.923066e+02
8.936254e+02
8.901089e+02
8.852737e+02
8.826364e+02
8.791199e+02
8.848342e+02
8.861528e+02
8.918671e+02
8.940649e+02
8.931858e+02
8.870320e+02
8.808781e+02
8.764825e+02
8.905485e+02
8.861528e+02
8.909880e+02
8.918671e+02
8.958231e+02
8.905485e+02
8.874715e+02
8.791199e+02
8.830759e+02
8.852737e+02
8.883506e+02
8.914276e+02
8.914276e+02
8.887902e+02
8.870320e+02
8.830759e+02
8.808781e+02
8.909880e+02
8.896693e+02
8.953836e+02
8.958231e+02
8.892297e+02
8.870320e+02
8.813177e+02
8.901089e+02
8.773616e+02
8.826364e+02
8.843946e+02
9.169220e+02
9.010979e+02
8.817572e+02
8.971418e+02
8.975814e+02
8.870320e+02
8.474716e+02
8.751638e+02
9.287902e+02
9.120869e+02
8.795594e+02
8.725265e+02
9.098890e+02
8.672518e+02
8.786803e+02
9.265923e+02
8.997792e+02
9.076913e+02
8.813177e+02
8.865924e+02
8.852737e+02
8.356035e+02
9.503286e+02
9.063726e+02
8.364825e+02
9.024166e+02
8.773616e+02
9.956033e+02
8.360430e+02
8.945045e+02
8.914276e+02
9.305484e+02
9.006583e+02
8.747242e+02
8.729661e+02
9.068121e+02
8.725265e+02
9.041748e+02
8.654935e+02
8.778012e+02
8.857133e+02
8.980209e+02
8.707682e+02
9.037352e+02
8.901089e+02
8.830759e+02
8.843946e+02
8.813177e+02
8.843946e+02
9.050539e+02
8.975814e+02
8.901089e+02
9.015374e+02
8.742847e+02
8.861528e+02
8.975814e+02
8.865924e+02
8.795594e+02
8.971418e+02
9.015374e+02
8.791199e+02
9.081309e+02
9.059330e+02
8.852737e+02
8.729661e+02
8.435155e+02
9.463726e+02
8.668122e+02
9.156033e+02
8.870320e+02
9.112078e+02
9.134055e+02
8.782407e+02
8.641748e+02
9.085704e+02
9.028561e+02
8.953836e+02
8.672518e+02
8.690100e+02
8.681309e+02
9.002188e+02
9.569220e+02
8.659331e+02
9.076913e+02
8.470320e+02
9.178011e+02
8.839550e+02
9.024166e+02
8.742847e+02
8.804385e+02
8.703287e+02
9.151638e+02
8.883506e+02
8.637353e+02
8.632957e+02
8.945045e+02
9.072517e+02
8.580210e+02
9.428561e+02
8.690100e+02
8.764825e+02
9.138451e+02
8.571418e+02
9.182407e+02
8.747242e+02
8.927462e+02
8.909880e+02
8.518672e+02
9.494495e+02
8.610979e+02
9.380209e+02
8.399990e+02
8.843946e+02
9.103286e+02
8.523067e+02
9.068121e+02
8.769221e+02
8.760430e+02
8.857133e+02
9.239550e+02
8.742847e+02
9.683505e+02
8.734056e+02
8.734056e+02
9.138451e+02
8.975814e+02
8.865924e+02
8.993396e+02
8.883506e+02
8.773616e+02
8.989001e+02
8.268123e+02
9.463726e+02
9.305484e+02
8.650540e+02
8.531859e+02
9.371418e+02
9.424165e+02
8.549441e+02
8.549441e+02
9.705483e+02
8.751638e+02
8.553837e+02
9.125264e+02
9.235154e+02
9.393396e+02
9.125264e+02
8.795594e+02
8.628561e+02
9.296693e+02
8.602188e+02
9.393396e+02
8.879111e+02
8.518672e+02
9.076913e+02
9.424165e+02
8.756034e+02
8.804385e+02
8.373617e+02
8.901089e+02
9.652736e+02
9.098890e+02
8.624166e+02
8.716473e+02
8.523067e+02
9.437352e+02
8.830759e+02
8.879111e+02
8.426364e+02
9.116473e+02
8.870320e+02
8.742847e+02
8.263727e+02
8.821968e+02
8.927462e+02
8.619771e+02
9.446143e+02
9.147242e+02
9.156033e+02
9.094495e+02
8.197793e+02
9.296693e+02
8.351639e+02
8.742847e+02
9.410978e+02
8.518672e+02
8.945045e+02
8.883506e+02
9.059330e+02
7.714277e+02
9.740648e+02
8.654935e+02
8.826364e+02
9.178011e+02
8.975814e+02
8.694496e+02
8.276913e+02
8.923066e+02
8.918671e+02
9.406583e+02
8.562628e+02
8.927462e+02
8.593397e+02
9.199990e+02
7.775815e+02
9.028561e+02
8.641748e+02
9.147242e+02
8.567023e+02
9.191198e+02
8.553837e+02
8.760430e+02
9.129660e+02
8.571418e+02
8.835155e+02
8.817572e+02
9.037352e+02
9.134055e+02
1.009230e+03
8.140650e+02
9.956033e+02
7.292299e+02
8.632957e+02
9.076913e+02
8.883506e+02
8.747242e+02
8.769221e+02
8.997792e+02
8.316474e+02
9.252737e+02
8.980209e+02
8.760430e+02
8.813177e+02
8.606583e+02
9.296693e+02
8.729661e+02
8.672518e+02
9.050539e+02
9.182407e+02
8.567023e+02
8.334056e+02
8.619771e+02
9.217572e+02
8.799990e+02
8.395594e+02
8.342848e+02
9.573616e+02
8.698891e+02
9.169220e+02
8.712078e+02
8.685704e+02
9.309879e+02
8.861528e+02
9.318671e+02
8.628561e+02
9.068121e+02
8.760430e+02
9.037352e+02
8.936254e+02
8.646144e+02
8.826364e+02
8.782407e+02
8.734056e+02
8.479111e+02
8.989001e+02
8.909880e+02
9.270319e+02
8.821968e+02
8.804385e+02
8.413177e+02
8.250540e+02
1.100658e+03
8.210980e+02
8.338452e+02
9.481308e+02
8.764825e+02
8.927462e+02
9.608781e+02
9.327462e+02
8.690100e+02
8.804385e+02
8.821968e+02
8.896693e+02
8.984605e+02
8.734056e+02
9.542846e+02
8.597792e+02
8.483507e+02
9.674714e+02
9.454934e+02
8.013177e+02
9.758231e+02
8.698891e+02
8.918671e+02
8.936254e+02
8.835155e+02
8.791199e+02
8.887902e+02
8.615375e+02
9.221968e+02
8.967023e+02
8.558232e+02
9.169220e+02
8.760430e+02
8.773616e+02
8.835155e+02
8.215375e+02
9.410978e+02
8.821968e+02
8.936254e+02
8.936254e+02
8.808781e+02
8.879111e+02
8.865924e+02
8.905485e+02
8.857133e+02
8.958231e+02
8.931858e+02
8.909880e+02
8.830759e+02
8.879111e+02
8.778012e+02
8.835155e+02
8.896693e+02
8.901089e+02
8.984605e+02
8.870320e+02
8.861528e+02
8.852737e+02
8.857133e+02
8.861528e+02
8.870320e+02
8.887902e+02
8.905485e+02
8.971418e+02
8.808781e+02
8.931858e+02
8.808781e+02
8.575814e+02
9.195594e+02
8.817572e+02
8.848342e+02
8.980209e+02
8.887902e+02
8.865924e+02
8.821968e+02
8.887902e+02
8.756034e+02
8.764825e+02
8.641748e+02
9.221968e+02
8.901089e+02
8.914276e+02
8.821968e+02
9.059330e+02
8.821968e+02
8.931858e+02
8.896693e+02
8.967023e+02
8.945045e+02
8.883506e+02
8.997792e+02
8.764825e+02
8.848342e+02
8.852737e+02
9.002188e+02
8.949440e+02
8.931858e+02
8.901089e+02
9.063726e+02
8.909880e+02
8.712078e+02
8.993396e+02
8.848342e+02
8.861528e+02
8.949440e+02
8.914276e+02
8.874715e+02
8.799990e+02
8.712078e+02
8.654935e+02
8.694496e+02
9.032957e+02
8.808781e+02
8.914276e+02
8.896693e+02
8.918671e+02
8.865924e+02
8.826364e+02
9.125264e+02
8.821968e+02
8.989001e+02
9.010979e+02
8.997792e+02
8.993396e+02
8.927462e+02
8.905485e+02
8.901089e+02
8.931858e+02
9.098890e+02
9.081309e+02
9.041748e+02
9.028561e+02
8.971418e+02
8.751638e+02
8.734056e+02
8.782407e+02
8.852737e+02
8.901089e+02
8.936254e+02
8.751638e+02
9.274714e+02
8.646144e+02
8.887902e+02
8.826364e+02
8.883506e+02
8.901089e+02
8.980209e+02
9.041748e+02
8.927462e+02
8.830759e+02
8.857133e+02
8.887902e+02
8.923066e+02
9.063726e+02
8.826364e+02
9.006583e+02
8.896693e+02
8.848342e+02
8.874715e+02
8.997792e+02
8.821968e+02
8.883506e+02
8.619771e+02
9.186803e+02
8.729661e+02
8.694496e+02
9.063726e+02
8.760430e+02
8.826364e+02
8.769221e+02
8.861528e+02
9.296693e+02
9.362627e+02
8.567023e+02
8.751638e+02
8.518672e+02
9.098890e+02
8.843946e+02
8.830759e+02
9.063726e+02
8.848342e+02
8.936254e+02
8.791199e+02
8.742847e+02
8.980209e+02
8.786803e+02
8.953836e+02
8.874715e+02
8.580210e+02
8.901089e+02
8.628561e+02
9.476912e+02
8.360430e+02
8.804385e+02
9.142847e+02
8.738452e+02
8.909880e+02
8.984605e+02
8.870320e+02
8.962627e+02
8.839550e+02
8.892297e+02
9.169220e+02
8.712078e+02
9.090099e+02
8.967023e+02
8.782407e+02
8.887902e+02
8.580210e+02
8.725265e+02
8.918671e+02
8.892297e+02
8.712078e+02
8.896693e+02
8.857133e+02
8.967023e+02
8.672518e+02
9.138451e+02
8.676913e+02
9.151638e+02
8.962627e+02
9.371418e+02
9.015374e+02
8.901089e+02
8.843946e+02
8.747242e+02
8.887902e+02
8.843946e+02
9.002188e+02
9.120869e+02
8.892297e+02
8.830759e+02
8.962627e+02
9.002188e+02
8.808781e+02
8.654935e+02
9.389000e+02
8.931858e+02
8.940649e+02
8.901089e+02
8.936254e+02
8.927462e+02
8.931858e+02
8.887902e+02
8.931858e+02
9.041748e+02
8.971418e+02
8.927462e+02
9.010979e+02
8.918671e+02
8.589001e+02
9.072517e+02
8.760430e+02
8.870320e+02
9.068121e+02
8.830759e+02
9.010979e+02
8.887902e+02
8.531859e+02
9.199990e+02
9.283506e+02
8.580210e+02
9.287902e+02
8.791199e+02
9.265923e+02
8.716473e+02
8.575814e+02
8.659331e+02
9.428561e+02
8.791199e+02
8.725265e+02
9.314275e+02
9.498890e+02
6.905486e+02
1.124834e+03
8.461529e+02
8.764825e+02
9.371418e+02
9.437352e+02
8.589001e+02
8.760430e+02
9.006583e+02
8.909880e+02
8.452737e+02
8.887902e+02
8.619771e+02
8.914276e+02
9.349440e+02
8.883506e+02
9.050539e+02
8.703287e+02
1.007032e+03
8.690100e+02
9.630758e+02
8.408782e+02
9.094495e+02
9.037352e+02
9.010979e+02
8.817572e+02
9.037352e+02
9.292297e+02
8.848342e+02
8.487902e+02
9.178011e+02
8.509880e+02
9.054935e+02
8.720869e+02
8.057134e+02
9.125264e+02
8.294496e+02
8.980209e+02
9.309879e+02
8.386804e+02
8.246144e+02
8.531859e+02
9.582407e+02
8.421968e+02
9.789000e+02
8.769221e+02
8.219771e+02
1.004834e+03
9.134055e+02
8.272518e+02
1.033405e+03
8.413177e+02
9.617571e+02
9.604385e+02
8.628561e+02
8.703287e+02
9.032957e+02
9.358231e+02
9.103286e+02
9.498890e+02
8.439551e+02
8.443947e+02
9.714275e+02
7.758233e+02
9.617571e+02
6.993398e+02
9.885703e+02
8.487902e+02
9.679110e+02
8.540649e+02
8.514276e+02
8.505485e+02
8.729661e+02
9.252737e+02
6.799992e+02
9.621967e+02
8.997792e+02
9.701088e+02
7.898892e+02
8.852737e+02
8.597792e+02
9.024166e+02
9.692297e+02
8.720869e+02
8.883506e+02
9.314275e+02
1.078240e+03
8.083507e+02
7.920870e+02
9.147242e+02
8.936254e+02
8.074716e+02
9.151638e+02
8.369221e+02
9.261528e+02
8.707682e+02
8.646144e+02
8.734056e+02
8.720869e+02
8.127463e+02
9.248341e+02
8.958231e+02
8.408782e+02
9.591198e+02
8.483507e+02
8.443947e+02
9.120869e+02
8.861528e+02
1.152087e+03
5.542851e+02
1.106812e+03
8.606583e+02
8.065925e+02
9.661527e+02
1.013625e+03
8.298892e+02
8.791199e+02
8.668122e+02
9.916472e+02
9.402187e+02
8.962627e+02
6.646146e+02
1.163515e+03
8.281309e+02
7.876914e+02
8.316474e+02
9.323066e+02
8.052738e+02
8.228562e+02
8.246144e+02
1.104175e+03
7.230761e+02
8.958231e+02
8.958231e+02
8.553837e+02
1.134504e+03
7.762628e+02
8.496694e+02
8.654935e+02
9.208781e+02
8.975814e+02
7.942848e+02
8.470320e+02
8.848342e+02
7.907683e+02
8.562628e+02
9.446143e+02
9.019770e+02
8.202189e+02
1.013625e+03
8.417573e+02
9.019770e+02
8.571418e+02
8.303287e+02
9.551638e+02
9.112078e+02
8.791199e+02
8.602188e+02
8.813177e+02
9.617571e+02
9.494495e+02
7.771420e+02
8.531859e+02
8.562628e+02
8.430759e+02
8.839550e+02
8.874715e+02
9.679110e+02
1.006592e+03
8.013177e+02
8.307683e+02
8.887902e+02
8.338452e+02
7.947244e+02
8.654935e+02
9.767021e+02
8.457133e+02
8.738452e+02
8.430759e+02
8.931858e+02
8.035156e+02
8.756034e+02
8.953836e+02
8.391199e+02
7.428563e+02
7.191201e+02
8.624166e+02
8.536254e+02
8.637353e+02
7.507684e+02
8.870320e+02
1.155603e+03
8.347243e+02
8.751638e+02
9.173616e+02
7.938452e+02
9.318671e+02
8.703287e+02
8.369221e+02
8.518672e+02
8.070320e+02
9.885703e+02
9.402187e+02
7.498893e+02
8.347243e+02
7.894496e+02
7.846145e+02
1.114724e+03
8.791199e+02
8.452737e+02
8.738452e+02
8.584606e+02
9.226363e+02
9.151638e+02
8.329661e+02
8.808781e+02
8.624166e+02
7.529662e+02
9.437352e+02
9.999988e+02
9.265923e+02
8.619771e+02
9.863725e+02
9.010979e+02
8.786803e+02
8.830759e+02
8.197793e+02
1.290988e+03
7.999991e+02
8.404386e+02
8.725265e+02
8.909880e+02
8.281309e+02
9.916472e+02
8.760430e+02
8.575814e+02
9.942845e+02
8.391199e+02
8.901089e+02
8.575814e+02
8.817572e+02
8.958231e+02
8.593397e+02
8.980209e+02
8.821968e+02
7.745046e+02
9.964824e+02
9.490099e+02
9.265923e+02
8.681309e+02
9.199990e+02
8.628561e+02
8.738452e+02
8.997792e+02
8.685704e+02
8.887902e+02
8.861528e+02
9.296693e+02
8.509880e+02
8.791199e+02
9.472516e+02
8.399990e+02
8.830759e+02
8.584606e+02
1.059339e+03
9.920868e+02
8.373617e+02
9.208781e+02
8.716473e+02
8.813177e+02
8.830759e+02
8.905485e+02
8.945045e+02
8.874715e+02
8.962627e+02
8.804385e+02
8.971418e+02
8.865924e+02
8.835155e+02
8.892297e+02
8.927462e+02
8.940649e+02
8.958231e+02
8.927462e+02
8.865924e+02
8.852737e+02
8.883506e+02
8.874715e+02
8.883506e+02
8.989001e+02
9.028561e+02
9.085704e+02
8.562628e+02
8.914276e+02
8.901089e+02
8.865924e+02
8.896693e+02
9.010979e+02
8.914276e+02
8.962627e+02
8.914276e+02
8.852737e+02
8.835155e+02
8.874715e+02
8.923066e+02
8.958231e+02
8.791199e+02
9.129660e+02
8.870320e+02
8.958231e+02
8.835155e+02
8.791199e+02
8.857133e+02
8.936254e+02
8.931858e+02
8.931858e+02
8.918671e+02
8.901089e+02
8.835155e+02
8.791199e+02
8.879111e+02
8.914276e+02
8.905485e+02
8.896693e+02
8.782407e+02
8.927462e+02
9.010979e+02
8.799990e+02
8.632957e+02
9.147242e+02
8.835155e+02
8.857133e+02
8.773616e+02
8.861528e+02
8.892297e+02
8.923066e+02
8.694496e+02
8.821968e+02
8.883506e+02
8.958231e+02
9.098890e+02
8.896693e+02
8.901089e+02
8.865924e+02
8.747242e+02
9.046144e+02
8.879111e+02
8.931858e+02
8.953836e+02
8.931858e+02
8.690100e+02
9.068121e+02
8.817572e+02
8.865924e+02
8.936254e+02
9.006583e+02
8.997792e+02
8.980209e+02
8.909880e+02
8.848342e+02
8.821968e+02
8.839550e+02
8.883506e+02
8.865924e+02
8.923066e+02
8.918671e+02
8.940649e+02
8.931858e+02
8.945045e+02
8.958231e+02
8.989001e+02
9.028561e+02
9.068121e+02
9.072517e+02
9.063726e+02
8.874715e+02
8.650540e+02
8.615375e+02
8.610979e+02
8.843946e+02
9.072517e+02
8.993396e+02
8.962627e+02
8.918671e+02
8.905485e+02
8.817572e+02
8.887902e+02
8.905485e+02
8.923066e+02
8.967023e+02
8.971418e+02
8.940649e+02
8.914276e+02
8.870320e+02
8.861528e+02
8.905485e+02
8.923066e+02
8.918671e+02
8.993396e+02
8.962627e+02
8.923066e+02
8.848342e+02
8.865924e+02
8.870320e+02
8.905485e+02
8.945045e+02
8.953836e+02
8.949440e+02
8.901089e+02
8.848342e+02
8.843946e+02
8.848342e+02
8.892297e+02
8.896693e+02
8.975814e+02
8.945045e+02
8.931858e+02
8.887902e+02
8.839550e+02
8.852737e+02
8.852737e+02
8.927462e+02
8.945045e+02
8.931858e+02
8.936254e+02
8.918671e+02
8.852737e+02
8.852737e+02
8.879111e+02
8.901089e+02
8.949440e+02
8.953836e+02
8.953836e+02
8.918671e+02
8.879111e+02
8.830759e+02
8.861528e+02
8.892297e+02
8.909880e+02
8.949440e+02
8.953836e+02
8.936254e+02
8.879111e+02
8.830759e+02
8.817572e+02
8.852737e+02
8.865924e+02
8.923066e+02
8.949440e+02
8.945045e+02
8.896693e+02
8.857133e+02
8.839550e+02
8.839550e+02
8.865924e+02
8.936254e+02
8.923066e+02
8.931858e+02
8.905485e+02
8.861528e+02
8.852737e+02
8.821968e+02
8.883506e+02
8.901089e+02
8.945045e+02
8.940649e+02
8.923066e+02
8.909880e+02
8.857133e+02
8.839550e+02
8.887902e+02
8.953836e+02
8.984605e+02
9.028561e+02
8.989001e+02
8.949440e+02
8.905485e+02
8.879111e+02
8.817572e+02
8.940649e+02
9.050539e+02
8.975814e+02
8.975814e+02
8.940649e+02
8.887902e+02
8.817572e+02
8.905485e+02
8.914276e+02
8.887902e+02
8.940649e+02
8.949440e+02
8.892297e+02
8.883506e+02
8.848342e+02
8.839550e+02
8.879111e+02
8.892297e+02
8.918671e+02
8.940649e+02
8.931858e+02
8.892297e+02
8.830759e+02
8.835155e+02
8.843946e+02
8.892297e+02
8.936254e+02
8.940649e+02
8.949440e+02
8.909880e+02
8.865924e+02
8.835155e+02
8.821968e+02
8.852737e+02
8.909880e+02
8.931858e+02
8.953836e+02
8.914276e+02
8.887902e+02
8.839550e+02
8.813177e+02
8.835155e+02
8.857133e+02
8.918671e+02
8.936254e+02
8.914276e+02
8.883506e+02
8.843946e+02
8.835155e+02
8.835155e+02
8.808781e+02
8.962627e+02
8.962627e+02
8.958231e+02
8.931858e+02
8.870320e+02
8.821968e+02
8.830759e+02
8.879111e+02
8.918671e+02
8.949440e+02
8.958231e+02
8.923066e+02
8.905485e+02
8.857133e+02
8.839550e+02
8.870320e+02
8.905485e+02
8.940649e+02
8.949440e+02
8.940649e+02
8.892297e+02
8.848342e+02
8.839550e+02
8.843946e+02
8.874715e+02
8.923066e+02
8.927462e+02
8.936254e+02
8.905485e+02
8.843946e+02
8.804385e+02
8.821968e+02
8.852737e+02
8.887902e+02
8.936254e+02
8.945045e+02
8.923066e+02
8.883506e+02
8.852737e+02
8.830759e+02
8.852737e+02
8.901089e+02
8.936254e+02
8.953836e+02
8.940649e+02
8.896693e+02
8.848342e+02
8.843946e+02
8.839550e+02
8.887902e+02
8.909880e+02
8.967023e+02
8.971418e+02
8.923066e+02
8.865924e+02
8.830759e+02
8.826364e+02
8.874715e+02
8.905485e+02
8.940649e+02
8.945045e+02
8.927462e+02
8.892297e+02
8.852737e+02
8.848342e+02
8.861528e+02
8.887902e+02
8.949440e+02
8.958231e+02
8.953836e+02
8.883506e+02
8.835155e+02
